H2(X)	H2(Y)	H3(X)	H3(Y)	H4(X)	H4(Y)	J3(X)	J3(Y)
6938.063	-1202.5	6938.063	6112.5	6938.063	-3397.5	6938.063	-1407.5
6938.064	-1095	6938.064	6140	6938.064	-3315	6938.064	-1312.5
6938.065	-850	6938.065	6237.5	6938.065	-3212.5	6938.065	-1217.5
6938.066	-637.5	6938.066	6260	6938.066	-3162.5	6938.066	-1102.5
6938.067	-460	6938.067	6340	6938.067	-3097.5	6938.067	-1005
6938.068	-297.5	6938.068	6485	6938.068	-2970	6938.068	-860
6938.069	-105	6938.069	6462.5	6938.069	-2897.5	6938.069	-805
6938.07	77.5	6938.07	6512.5	6938.07	-2860	6938.07	-765
6938.071	217.5	6938.071	6597.5	6938.071	-2782.5	6938.071	-690
6938.072	387.5	6938.072	6600	6938.072	-2692.5	6938.072	-637.5
6938.073	487.5	6938.073	6595	6938.073	-2585	6938.073	-577.5
6938.074	407.5	6938.074	6557.5	6938.074	-2602.5	6938.074	-572.5
6938.075	425	6938.075	6470	6938.075	-2642.5	6938.075	-545
6938.076	417.5	6938.076	6377.5	6938.076	-2600	6938.076	-587.5
6938.077	402.5	6938.077	6245	6938.077	-2602.5	6938.077	-582.5
6938.078	350	6938.078	6115	6938.078	-2610	6938.078	-662.5
6938.079	325	6938.079	6027.5	6938.079	-2592.5	6938.079	-672.5
6938.08	372.5	6938.08	5862.5	6938.08	-2502.5	6938.08	-745
6938.081	330	6938.081	5817.5	6938.081	-2462.5	6938.081	-740
6938.082	297.5	6938.082	5792.5	6938.082	-2460	6938.082	-792.5
6938.083	377.5	6938.083	5685	6938.083	-2410	6938.083	-747.5
6938.084	432.5	6938.084	5670	6938.084	-2352.5	6938.084	-742.5
6938.085	615	6938.085	5690	6938.085	-2257.5	6938.085	-632.5
6938.086	770	6938.086	5830	6938.086	-2177.5	6938.086	-615
6938.087	982.5	6938.087	5880	6938.087	-2097.5	6938.087	-440
6938.088	1207.5	6938.088	5990	6938.088	-2040	6938.088	-345
6938.089	1410	6938.089	6095	6938.089	-1965	6938.089	-260
6938.09	1565	6938.09	6117.5	6938.09	-1860	6938.09	-185
6938.091	1635	6938.091	6162.5	6938.091	-1772.5	6938.091	-82.5
6938.092	1760	6938.092	6217.5	6938.092	-1750	6938.092	-57.5
6938.093	1760	6938.093	6252.5	6938.093	-1685	6938.093	-52.5
6938.094	1762.5	6938.094	6207.5	6938.094	-1640	6938.094	-22.5
6938.095	1682.5	6938.095	6170	6938.095	-1645	6938.095	-42.5
6938.096	1655	6938.096	6035	6938.096	-1602.5	6938.096	-85
6938.097	1607.5	6938.097	6045	6938.097	-1567.5	6938.097	-70
6938.098	1555	6938.098	5805	6938.098	-1550	6938.098	-125
6938.099	1555	6938.099	5760	6938.099	-1512.5	6938.099	-110
6938.1	1427.5	6938.1	5635	6938.1	-1485	6938.1	-122.5
6938.101	1477.5	6938.101	5600	6938.101	-1425	6938.101	-65
6938.102	1545	6938.102	5557.5	6938.102	-1357.5	6938.102	-35
6938.103	1610	6938.103	5612.5	6938.103	-1212.5	6938.103	62.5
6938.104	1707.5	6938.104	5657.5	6938.104	-1120	6938.104	167.5
6938.105	1860	6938.105	5707.5	6938.105	-1055	6938.105	190
6938.106	2030	6938.106	5907.5	6938.106	-855	6938.106	527.5
6938.107	2695	6938.107	6485	6938.107	-387.5	6938.107	1080
6938.108	4712.5	6938.108	8317.5	6938.108	1202.5	6938.108	2712.5
6938.109	6785	6938.109	10050	6938.109	2520	6938.109	4275
6938.11	8890	6938.11	11270	6938.11	2972.5	6938.11	5040
6938.111	11187.5	6938.111	13072.5	6938.111	4372.5	6938.111	6457.5
6938.112	15407.5	6938.112	17585	6938.112	9375	6938.112	10340
6938.113	19480	6938.113	23295	6938.113	17135	6938.113	15225
6938.114	25605	6938.114	31437.5	6938.114	28427.5	6938.114	21867.5
6938.115	29817.5	6938.115	37107.5	6938.115	38332.5	6938.115	26907.5
6938.116	32545	6938.116	41085	6938.116	44542.5	6938.116	29722.5
6938.117	39362.5	6938.117	48125	6938.117	49445	6938.117	37600
6938.118	41385	6938.118	51345	6938.118	53125	6938.118	43490
6938.119	1852.5	6938.119	-3677.5	6938.119	29705	6938.119	28012.5
6938.12	-6120	6938.12	-4907.5	6938.12	-8005	6938.12	-9210
6938.121	-1945	6938.121	-1177.5	6938.121	-2232.5	6938.121	-7602.5
6938.122	285	6938.122	1627.5	6938.122	-737.5	6938.122	-4145
6938.123	1075	6938.123	2725	6938.123	-362.5	6938.123	-2252.5
6938.124	1137.5	6938.124	3082.5	6938.124	-212.5	6938.124	-1520
6938.125	1980	6938.125	3917.5	6938.125	745	6938.125	-402.5
6938.126	2935	6938.126	4747.5	6938.126	1790	6938.126	642.5
6938.127	2805	6938.127	4420	6938.127	1557.5	6938.127	562.5
6938.128	2732.5	6938.128	4232.5	6938.128	1632.5	6938.128	517.5
6938.129	2715	6938.129	4237.5	6938.129	1927.5	6938.129	562.5
6938.13	2582.5	6938.13	3955	6938.13	2060	6938.13	485
6938.131	1972.5	6938.131	3197.5	6938.131	1530	6938.131	-185
6938.132	1677.5	6938.132	2882.5	6938.132	1452.5	6938.132	-345
6938.133	1645	6938.133	2875	6938.133	1830	6938.133	-265
6938.134	1677.5	6938.134	2980	6938.134	2255	6938.134	-132.5
6938.135	1677.5	6938.135	2967.5	6938.135	2627.5	6938.135	-82.5
6938.136	1760	6938.136	3012.5	6938.136	3052.5	6938.136	-15
6938.137	1885	6938.137	3167.5	6938.137	3510	6938.137	162.5
6938.138	2020	6938.138	3457.5	6938.138	4047.5	6938.138	347.5
6938.139	2250	6938.139	3742.5	6938.139	4622.5	6938.139	655
6938.14	2565	6938.14	4295	6938.14	5270	6938.14	1017.5
6938.141	2967.5	6938.141	4867.5	6938.141	5922.5	6938.141	1380
6938.142	3480	6938.142	5580	6938.142	6557.5	6938.142	1880
6938.143	4087.5	6938.143	6325	6938.143	7160	6938.143	2397.5
6938.144	4730	6938.144	7130	6938.144	7725	6938.144	3025
6938.145	5390	6938.145	8032.5	6938.145	8207.5	6938.145	3705
6938.146	6210	6938.146	8850	6938.146	8605	6938.146	4377.5
6938.147	6752.5	6938.147	9617.5	6938.147	8980	6938.147	5052.5
6938.148	7400	6938.148	10247.5	6938.148	9220	6938.148	5657.5
6938.149	7785	6938.149	10642.5	6938.149	9435	6938.149	6120
6938.15	8122.5	6938.15	11017.5	6938.15	9517.5	6938.15	6597.5
6938.151	8410	6938.151	11277.5	6938.151	9530	6938.151	6922.5
6938.152	8477.5	6938.152	11427.5	6938.152	9397.5	6938.152	7235
6938.153	8577.5	6938.153	11490	6938.153	9292.5	6938.153	7357.5
6938.154	8507.5	6938.154	11520	6938.154	9127.5	6938.154	7375
6938.155	8252.5	6938.155	11385	6938.155	8870	6938.155	7367.5
6938.156	7950	6938.156	11217.5	6938.156	8587.5	6938.156	7305
6938.157	7600	6938.157	10985	6938.157	8355	6938.157	7067.5
6938.158	7260	6938.158	10632.5	6938.158	7980	6938.158	6822.5
6938.159	6890	6938.159	10302.5	6938.159	7692.5	6938.159	6582.5
6938.16	6472.5	6938.16	9995	6938.16	7320	6938.16	6272.5
6938.161	6132.5	6938.161	9670	6938.161	7047.5	6938.161	6012.5
6938.162	5842.5	6938.162	9307.5	6938.162	6720	6938.162	5600
6938.163	5507.5	6938.163	8952.5	6938.163	6375	6938.163	5302.5
6938.164	5077.5	6938.164	8685	6938.164	6082.5	6938.164	5102.5
6938.165	4922.5	6938.165	8442.5	6938.165	5787.5	6938.165	4870
6938.166	4697.5	6938.166	8185	6938.166	5512.5	6938.166	4595
6938.167	4505	6938.167	7947.5	6938.167	5310	6938.167	4355
6938.168	4282.5	6938.168	7782.5	6938.168	5007.5	6938.168	4115
6938.169	4085	6938.169	7530	6938.169	4710	6938.169	3915
6938.17	3902.5	6938.17	7355	6938.17	4480	6938.17	3727.5
6938.171	3730	6938.171	7220	6938.171	4295	6938.171	3522.5
6938.172	3387.5	6938.172	6957.5	6938.172	3990	6938.172	3282.5
6938.173	3205	6938.173	6707.5	6938.173	3765	6938.173	3072.5
6938.174	2930	6938.174	6425	6938.174	3505	6938.174	2832.5
6938.175	2555	6938.175	6037.5	6938.175	3265	6938.175	2460
6938.176	2250	6938.176	5640	6938.176	3007.5	6938.176	2245
6938.177	1945	6938.177	5172.5	6938.177	2830	6938.177	2005
6938.178	1717.5	6938.178	4752.5	6938.178	2575	6938.178	1792.5
6938.179	1400	6938.179	4337.5	6938.179	2372.5	6938.179	1557.5
6938.18	1060	6938.18	3877.5	6938.18	2185	6938.18	1267.5
6938.181	837.5	6938.181	3377.5	6938.181	2005	6938.181	1112.5
6938.182	592.5	6938.182	2915	6938.182	1880	6938.182	992.5
6938.183	497.5	6938.183	2572.5	6938.183	1707.5	6938.183	857.5
6938.184	405	6938.184	2247.5	6938.184	1605	6938.184	657.5
6938.185	265	6938.185	1927.5	6938.185	1495	6938.185	605
6938.186	290	6938.186	1632.5	6938.186	1342.5	6938.186	550
6938.187	277.5	6938.187	1350	6938.187	1305	6938.187	510
6938.188	247.5	6938.188	1125	6938.188	1205	6938.188	502.5
6938.189	190	6938.189	837.5	6938.189	1197.5	6938.189	352.5
6938.19	220	6938.19	520	6938.19	1097.5	6938.19	347.5
6938.191	142.5	6938.191	172.5	6938.191	975	6938.191	255
6938.192	-10	6938.192	-280	6938.192	875	6938.192	147.5
6938.193	-72.5	6938.193	-675	6938.193	797.5	6938.193	100
6938.194	-155	6938.194	-1245	6938.194	660	6938.194	57.5
6938.195	-345	6938.195	-1850	6938.195	580	6938.195	-140
6938.196	-520	6938.196	-2530	6938.196	477.5	6938.196	-295
6938.197	-650	6938.197	-3247.5	6938.197	367.5	6938.197	-392.5
6938.198	-962.5	6938.198	-3957.5	6938.198	230	6938.198	-625
6938.199	-1185	6938.199	-4597.5	6938.199	55	6938.199	-682.5
6938.2	-1440	6938.2	-5182.5	6938.2	-30	6938.2	-750
6938.201	-1532.5	6938.201	-5790	6938.201	-197.5	6938.201	-952.5
6938.202	-1665	6938.202	-6295	6938.202	-235	6938.202	-1047.5
6938.203	-1735	6938.203	-6802.5	6938.203	-347.5	6938.203	-1165
6938.204	-1745	6938.204	-7267.5	6938.204	-437.5	6938.204	-1182.5
6938.205	-1840	6938.205	-7667.5	6938.205	-505	6938.205	-1250
6938.206	-1800	6938.206	-8060	6938.206	-557.5	6938.206	-1332.5
6938.207	-1810	6938.207	-8292.5	6938.207	-587.5	6938.207	-1285
6938.208	-1837.5	6938.208	-8612.5	6938.208	-655	6938.208	-1327.5
6938.209	-1740	6938.209	-8882.5	6938.209	-712.5	6938.209	-1365
6938.21	-1702.5	6938.21	-9135	6938.21	-795	6938.21	-1370
6938.211	-1737.5	6938.211	-9345	6938.211	-820	6938.211	-1367.5
6938.212	-1825	6938.212	-9710	6938.212	-920	6938.212	-1397.5
6938.213	-1867.5	6938.213	-9947.5	6938.213	-1015	6938.213	-1410
6938.214	-2057.5	6938.214	-10252.5	6938.214	-1060	6938.214	-1507.5
6938.215	-2172.5	6938.215	-10635	6938.215	-1247.5	6938.215	-1687.5
6938.216	-2435	6938.216	-10900	6938.216	-1285	6938.216	-1777.5
6938.217	-2520	6938.217	-11185	6938.217	-1352.5	6938.217	-1805
6938.218	-2715	6938.218	-11455	6938.218	-1522.5	6938.218	-1887.5
6938.219	-2842.5	6938.219	-11770	6938.219	-1652.5	6938.219	-2020
6938.22	-3092.5	6938.22	-12032.5	6938.22	-1727.5	6938.22	-2090
6938.221	-3257.5	6938.221	-12255	6938.221	-1767.5	6938.221	-2172.5
6938.222	-3302.5	6938.222	-12507.5	6938.222	-1895	6938.222	-2190
6938.223	-3430	6938.223	-12667.5	6938.223	-1930	6938.223	-2217.5
6938.224	-3425	6938.224	-12705	6938.224	-2010	6938.224	-2237.5
6938.225	-3407.5	6938.225	-12847.5	6938.225	-2025	6938.225	-2160
6938.226	-3362.5	6938.226	-12862.5	6938.226	-2085	6938.226	-2067.5
6938.227	-3300	6938.227	-12882.5	6938.227	-2015	6938.227	-1967.5
6938.228	-3205	6938.228	-12902.5	6938.228	-2040	6938.228	-1962.5
6938.229	-3190	6938.229	-12952.5	6938.229	-2010	6938.229	-1892.5
6938.23	-3077.5	6938.23	-12920	6938.23	-2020	6938.23	-1855
6938.231	-3037.5	6938.231	-12932.5	6938.231	-2087.5	6938.231	-1830
6938.232	-3072.5	6938.232	-13067.5	6938.232	-2105	6938.232	-1790
6938.233	-3142.5	6938.233	-12980	6938.233	-2082.5	6938.233	-1775
6938.234	-3165	6938.234	-13007.5	6938.234	-2177.5	6938.234	-1772.5
6938.235	-3347.5	6938.235	-13145	6938.235	-2185	6938.235	-1840
6938.236	-3480	6938.236	-13217.5	6938.236	-2252.5	6938.236	-1912.5
6938.237	-3552.5	6938.237	-13315	6938.237	-2332.5	6938.237	-1932.5
6938.238	-3760	6938.238	-13445	6938.238	-2352.5	6938.238	-2012.5
6938.239	-3890	6938.239	-13597.5	6938.239	-2445	6938.239	-2045
6938.24	-3935	6938.24	-13645	6938.24	-2450	6938.24	-2072.5
6938.241	-3977.5	6938.241	-13732.5	6938.241	-2465	6938.241	-2162.5
6938.242	-3950	6938.242	-13742.5	6938.242	-2507.5	6938.242	-2232.5
6938.243	-4075	6938.243	-13742.5	6938.243	-2530	6938.243	-2200
6938.244	-4047.5	6938.244	-13727.5	6938.244	-2502.5	6938.244	-2185
6938.245	-3982.5	6938.245	-13530	6938.245	-2492.5	6938.245	-2140
6938.246	-3892.5	6938.246	-13500	6938.246	-2467.5	6938.246	-2062.5
6938.247	-3740	6938.247	-13317.5	6938.247	-2420	6938.247	-2005
6938.248	-3650	6938.248	-13202.5	6938.248	-2400	6938.248	-2012.5
6938.249	-3605	6938.249	-13120	6938.249	-2380	6938.249	-1977.5
6938.25	-3467.5	6938.25	-12957.5	6938.25	-2337.5	6938.25	-1885
6938.251	-3472.5	6938.251	-12817.5	6938.251	-2327.5	6938.251	-1895
6938.252	-3387.5	6938.252	-12682.5	6938.252	-2325	6938.252	-1910
6938.253	-3335	6938.253	-12592.5	6938.253	-2357.5	6938.253	-1880
6938.254	-3392.5	6938.254	-12582.5	6938.254	-2357.5	6938.254	-1947.5
6938.255	-3515	6938.255	-12600	6938.255	-2377.5	6938.255	-2002.5
6938.256	-3562.5	6938.256	-12605	6938.256	-2397.5	6938.256	-2032.5
6938.257	-3670	6938.257	-12647.5	6938.257	-2402.5	6938.257	-2110
6938.258	-3682.5	6938.258	-12712.5	6938.258	-2395	6938.258	-2192.5
6938.259	-3830	6938.259	-12750	6938.259	-2390	6938.259	-2227.5
6938.26	-3932.5	6938.26	-12770	6938.26	-2442.5	6938.26	-2337.5
6938.261	-4015	6938.261	-12845	6938.261	-2472.5	6938.261	-2512.5
6938.262	-4015	6938.262	-12752.5	6938.262	-2417.5	6938.262	-2462.5
6938.263	-3967.5	6938.263	-12740	6938.263	-2415	6938.263	-2560
6938.264	-4000	6938.264	-12705	6938.264	-2367.5	6938.264	-2577.5
6938.265	-3857.5	6938.265	-12542.5	6938.265	-2275	6938.265	-2525
6938.266	-3787.5	6938.266	-12455	6938.266	-2295	6938.266	-2520
6938.267	-3705	6938.267	-12285	6938.267	-2225	6938.267	-2500
6938.268	-3575	6938.268	-12152.5	6938.268	-2182.5	6938.268	-2475
6938.269	-3455	6938.269	-12030	6938.269	-2165	6938.269	-2460
6938.27	-3402.5	6938.27	-11867.5	6938.27	-2097.5	6938.27	-2435
6938.271	-3322.5	6938.271	-11735	6938.271	-2142.5	6938.271	-2377.5
6938.272	-3310	6938.272	-11610	6938.272	-2110	6938.272	-2410
6938.273	-3340	6938.273	-11535	6938.273	-2110	6938.273	-2485
6938.274	-3310	6938.274	-11510	6938.274	-2080	6938.274	-2487.5
6938.275	-3320	6938.275	-11562.5	6938.275	-2035	6938.275	-2560
6938.276	-3415	6938.276	-11567.5	6938.276	-2110	6938.276	-2592.5
6938.277	-3535	6938.277	-11537.5	6938.277	-2110	6938.277	-2717.5
6938.278	-3680	6938.278	-11650	6938.278	-2122.5	6938.278	-2852.5
6938.279	-3680	6938.279	-11597.5	6938.279	-2097.5	6938.279	-2955
6938.28	-3787.5	6938.28	-11620	6938.28	-2122.5	6938.28	-2992.5
6938.281	-3905	6938.281	-11670	6938.281	-2112.5	6938.281	-3132.5
6938.282	-3740	6938.282	-11560	6938.282	-2065	6938.282	-3170
6938.283	-3817.5	6938.283	-11487.5	6938.283	-2077.5	6938.283	-3142.5
6938.284	-3772.5	6938.284	-11450	6938.284	-2022.5	6938.284	-3217.5
6938.285	-3670	6938.285	-11307.5	6938.285	-1952.5	6938.285	-3160
6938.286	-3515	6938.286	-11147.5	6938.286	-1945	6938.286	-3147.5
6938.287	-3377.5	6938.287	-11047.5	6938.287	-1960	6938.287	-3115
6938.288	-3187.5	6938.288	-10897.5	6938.288	-1895	6938.288	-3075
6938.289	-3142.5	6938.289	-10787.5	6938.289	-1835	6938.289	-3125
6938.29	-2970	6938.29	-10527.5	6938.29	-1817.5	6938.29	-3012.5
6938.291	-2937.5	6938.291	-10412.5	6938.291	-1820	6938.291	-2995
6938.292	-2895	6938.292	-10335	6938.292	-1810	6938.292	-3032.5
6938.293	-2927.5	6938.293	-10212.5	6938.293	-1805	6938.293	-3022.5
6938.294	-2857.5	6938.294	-10145	6938.294	-1762.5	6938.294	-2992.5
6938.295	-3040	6938.295	-10152.5	6938.295	-1780	6938.295	-3040
6938.296	-3042.5	6938.296	-10130	6938.296	-1792.5	6938.296	-3117.5
6938.297	-3140	6938.297	-10102.5	6938.297	-1815	6938.297	-3152.5
6938.298	-3247.5	6938.298	-10052.5	6938.298	-1817.5	6938.298	-3265
6938.299	-3337.5	6938.299	-10107.5	6938.299	-1837.5	6938.299	-3340
6938.3	-3400	6938.3	-10167.5	6938.3	-1842.5	6938.3	-3432.5
6938.301	-3482.5	6938.301	-10145	6938.301	-1885	6938.301	-3415
6938.302	-3400	6938.302	-10027.5	6938.302	-1797.5	6938.302	-3480
6938.303	-3470	6938.303	-10020	6938.303	-1837.5	6938.303	-3517.5
6938.304	-3410	6938.304	-9900	6938.304	-1795	6938.304	-3490
6938.305	-3240	6938.305	-9700	6938.305	-1777.5	6938.305	-3437.5
6938.306	-3155	6938.306	-9520	6938.306	-1780	6938.306	-3397.5
6938.307	-2985	6938.307	-9335	6938.307	-1667.5	6938.307	-3377.5
6938.308	-2852.5	6938.308	-9122.5	6938.308	-1657.5	6938.308	-3287.5
6938.309	-2807.5	6938.309	-8987.5	6938.309	-1607.5	6938.309	-3287.5
6938.31	-2725	6938.31	-8717.5	6938.31	-1577.5	6938.31	-3172.5
6938.311	-2617.5	6938.311	-8467.5	6938.311	-1555	6938.311	-3127.5
6938.312	-2550	6938.312	-8270	6938.312	-1560	6938.312	-3142.5
6938.313	-2545	6938.313	-8137.5	6938.313	-1545	6938.313	-3127.5
6938.314	-2487.5	6938.314	-8010	6938.314	-1557.5	6938.314	-3052.5
6938.315	-2635	6938.315	-7832.5	6938.315	-1527.5	6938.315	-3135
6938.316	-2690	6938.316	-7707.5	6938.316	-1567.5	6938.316	-3197.5
6938.317	-2785	6938.317	-7627.5	6938.317	-1542.5	6938.317	-3210
6938.318	-2895	6938.318	-7512.5	6938.318	-1620	6938.318	-3292.5
6938.319	-2985	6938.319	-7405	6938.319	-1555	6938.319	-3347.5
6938.32	-3102.5	6938.32	-7230	6938.32	-1622.5	6938.32	-3405
6938.321	-3105	6938.321	-7015	6938.321	-1635	6938.321	-3460
6938.322	-3105	6938.322	-6835	6938.322	-1635	6938.322	-3467.5
6938.323	-3035	6938.323	-6555	6938.323	-1630	6938.323	-3440
6938.324	-3062.5	6938.324	-6215	6938.324	-1565	6938.324	-3375
6938.325	-2970	6938.325	-5842.5	6938.325	-1540	6938.325	-3365
6938.326	-2817.5	6938.326	-5407.5	6938.326	-1465	6938.326	-3295
6938.327	-2700	6938.327	-4912.5	6938.327	-1475	6938.327	-3170
6938.328	-2507.5	6938.328	-4480	6938.328	-1372.5	6938.328	-3110
6938.329	-2517.5	6938.329	-4042.5	6938.329	-1417.5	6938.329	-3082.5
6938.33	-2392.5	6938.33	-3510	6938.33	-1305	6938.33	-2977.5
6938.331	-2275	6938.331	-2935	6938.331	-1315	6938.331	-2870
6938.332	-2155	6938.332	-2492.5	6938.332	-1327.5	6938.332	-2797.5
6938.333	-2097.5	6938.333	-1990	6938.333	-1300	6938.333	-2760
6938.334	-2197.5	6938.334	-1457.5	6938.334	-1337.5	6938.334	-2757.5
6938.335	-2150	6938.335	-1082.5	6938.335	-1390	6938.335	-2747.5
6938.336	-2247.5	6938.336	-690	6938.336	-1377.5	6938.336	-2737.5
6938.337	-2302.5	6938.337	-252.5	6938.337	-1350	6938.337	-2727.5
6938.338	-2402.5	6938.338	52.5	6938.338	-1415	6938.338	-2720
6938.339	-2535	6938.339	372.5	6938.339	-1405	6938.339	-2737.5
6938.34	-2602.5	6938.34	707.5	6938.34	-1455	6938.34	-2730
6938.341	-2597.5	6938.341	1060	6938.341	-1482.5	6938.341	-2710
6938.342	-2587.5	6938.342	1367.5	6938.342	-1472.5	6938.342	-2690
6938.343	-2567.5	6938.343	1782.5	6938.343	-1497.5	6938.343	-2685
6938.344	-2527.5	6938.344	2182.5	6938.344	-1455	6938.344	-2610
6938.345	-2405	6938.345	2710	6938.345	-1440	6938.345	-2462.5
6938.346	-2222.5	6938.346	3215	6938.346	-1390	6938.346	-2360
6938.347	-2140	6938.347	3702.5	6938.347	-1440	6938.347	-2277.5
6938.348	-1960	6938.348	4287.5	6938.348	-1350	6938.348	-2120
6938.349	-1847.5	6938.349	4830	6938.349	-1367.5	6938.349	-2012.5
6938.35	-1715	6938.35	5322.5	6938.35	-1345	6938.35	-1865
6938.351	-1635	6938.351	5892.5	6938.351	-1322.5	6938.351	-1742.5
6938.352	-1625	6938.352	6345	6938.352	-1287.5	6938.352	-1645
6938.353	-1460	6938.353	6822.5	6938.353	-1292.5	6938.353	-1565
6938.354	-1450	6938.354	7177.5	6938.354	-1317.5	6938.354	-1545
6938.355	-1485	6938.355	7492.5	6938.355	-1300	6938.355	-1435
6938.356	-1600	6938.356	7732.5	6938.356	-1340	6938.356	-1452.5
6938.357	-1595	6938.357	7900	6938.357	-1367.5	6938.357	-1420
6938.358	-1732.5	6938.358	7980	6938.358	-1342.5	6938.358	-1392.5
6938.359	-1727.5	6938.359	8067.5	6938.359	-1387.5	6938.359	-1377.5
6938.36	-1772.5	6938.36	8140	6938.36	-1405	6938.36	-1307.5
6938.361	-1857.5	6938.361	8217.5	6938.361	-1400	6938.361	-1255
6938.362	-1780	6938.362	8375	6938.362	-1377.5	6938.362	-1080
6938.363	-1775	6938.363	8390	6938.363	-1355	6938.363	-1045
6938.364	-1660	6938.364	8510	6938.364	-1340	6938.364	-890
6938.365	-1430	6938.365	8687.5	6938.365	-1317.5	6938.365	-695
6938.366	-1332.5	6938.366	8765	6938.366	-1290	6938.366	-632.5
6938.367	-1165	6938.367	8920	6938.367	-1225	6938.367	-380
6938.368	-985	6938.368	9062.5	6938.368	-1265	6938.368	-257.5
6938.369	-785	6938.369	9220	6938.369	-1160	6938.369	-155
6938.37	-672.5	6938.37	9292.5	6938.37	-1180	6938.37	37.5
6938.371	-482.5	6938.371	9495	6938.371	-1175	6938.371	202.5
6938.372	-462.5	6938.372	9632.5	6938.372	-1155	6938.372	365
6938.373	-387.5	6938.373	9665	6938.373	-1100	6938.373	425
6938.374	-232.5	6938.374	9815	6938.374	-1100	6938.374	555
6938.375	-285	6938.375	9775	6938.375	-1102.5	6938.375	595
6938.376	-350	6938.376	9845	6938.376	-1112.5	6938.376	817.5
6938.377	-352.5	6938.377	9717.5	6938.377	-1065	6938.377	822.5
6938.378	-305	6938.378	9682.5	6938.378	-1090	6938.378	922.5
6938.379	-375	6938.379	9635	6938.379	-1135	6938.379	1047.5
6938.38	-295	6938.38	9580	6938.38	-1180	6938.38	1065
6938.381	-325	6938.381	9530	6938.381	-1160	6938.381	1057.5
6938.382	-142.5	6938.382	9485	6938.382	-1125	6938.382	1225
6938.383	-132.5	6938.383	9525	6938.383	-1130	6938.383	1307.5
6938.384	62.5	6938.384	9582.5	6938.384	-1062.5	6938.384	1407.5
6938.385	170	6938.385	9587.5	6938.385	-1052.5	6938.385	1587.5
6938.386	380	6938.386	9662.5	6938.386	-1047.5	6938.386	1745
6938.387	525	6938.387	9690	6938.387	-1002.5	6938.387	1857.5
6938.388	817.5	6938.388	9757.5	6938.388	-925	6938.388	1897.5
6938.389	982.5	6938.389	9825	6938.389	-972.5	6938.389	2047.5
6938.39	1210	6938.39	9857.5	6938.39	-885	6938.39	2045
6938.391	1417.5	6938.391	9942.5	6938.391	-815	6938.391	2215
6938.392	1495	6938.392	9885	6938.392	-815	6938.392	2272.5
6938.393	1780	6938.393	9895	6938.393	-772.5	6938.393	2335
6938.394	1840	6938.394	9837.5	6938.394	-770	6938.394	2325
6938.395	1800	6938.395	9810	6938.395	-837.5	6938.395	2372.5
6938.396	1755	6938.396	9682.5	6938.396	-797.5	6938.396	2302.5
6938.397	1802.5	6938.397	9565	6938.397	-807.5	6938.397	2305
6938.398	1850	6938.398	9410	6938.398	-830	6938.398	2245
6938.399	1850	6938.399	9310	6938.399	-845	6938.399	2207.5
6938.4	1960	6938.4	9140	6938.4	-842.5	6938.4	2177.5
6938.401	1845	6938.401	9027.5	6938.401	-887.5	6938.401	2195
6938.402	1942.5	6938.402	8972.5	6938.402	-865	6938.402	2230
6938.403	2057.5	6938.403	8940	6938.403	-795	6938.403	2210
6938.404	2105	6938.404	8872.5	6938.404	-777.5	6938.404	2282.5
6938.405	2152.5	6938.405	8895	6938.405	-742.5	6938.405	2245
6938.406	2370	6938.406	8992.5	6938.406	-742.5	6938.406	2390
6938.407	2495	6938.407	8970	6938.407	-690	6938.407	2455
6938.408	2707.5	6938.408	9022.5	6938.408	-620	6938.408	2525
6938.409	2800	6938.409	9042.5	6938.409	-637.5	6938.409	2585
6938.41	3065	6938.41	9035	6938.41	-542.5	6938.41	2625
6938.411	3235	6938.411	9110	6938.411	-515	6938.411	2762.5
6938.412	3292.5	6938.412	9030	6938.412	-547.5	6938.412	2715
6938.413	3380	6938.413	9047.5	6938.413	-542.5	6938.413	2870
6938.414	3480	6938.414	9025	6938.414	-460	6938.414	2770
6938.415	3347.5	6938.415	8935	6938.415	-525	6938.415	2757.5
6938.416	3355	6938.416	8825	6938.416	-500	6938.416	2692.5
6938.417	3320	6938.417	8672.5	6938.417	-522.5	6938.417	2605
6938.418	3245	6938.418	8462.5	6938.418	-577.5	6938.418	2552.5
6938.419	3117.5	6938.419	8377.5	6938.419	-565	6938.419	2460
6938.42	3015	6938.42	8195	6938.42	-600	6938.42	2482.5
6938.421	2952.5	6938.421	8155	6938.421	-617.5	6938.421	2387.5
6938.422	3042.5	6938.422	8035	6938.422	-577.5	6938.422	2325
6938.423	2997.5	6938.423	7965	6938.423	-630	6938.423	2312.5
6938.424	3032.5	6938.424	7857.5	6938.424	-577.5	6938.424	2375
6938.425	3090	6938.425	7877.5	6938.425	-560	6938.425	2370
6938.426	3202.5	6938.426	7882.5	6938.426	-492.5	6938.426	2405
6938.427	3337.5	6938.427	7930	6938.427	-470	6938.427	2360
6938.428	3372.5	6938.428	7977.5	6938.428	-472.5	6938.428	2460
6938.429	3495	6938.429	7957.5	6938.429	-405	6938.429	2487.5
6938.43	3630	6938.43	8030	6938.43	-360	6938.43	2557.5
6938.431	3747.5	6938.431	8067.5	6938.431	-282.5	6938.431	2625
6938.432	3722.5	6938.432	8037.5	6938.432	-337.5	6938.432	2580
6938.433	3815	6938.433	8050	6938.433	-275	6938.433	2605
6938.434	3827.5	6938.434	7977.5	6938.434	-295	6938.434	2522.5
6938.435	3747.5	6938.435	7845	6938.435	-325	6938.435	2525
6938.436	3562.5	6938.436	7710	6938.436	-290	6938.436	2405
6938.437	3557.5	6938.437	7562.5	6938.437	-357.5	6938.437	2367.5
6938.438	3362.5	6938.438	7420	6938.438	-337.5	6938.438	2310
6938.439	3252.5	6938.439	7285	6938.439	-367.5	6938.439	2220
6938.44	3212.5	6938.44	7182.5	6938.44	-390	6938.44	2165
6938.441	3090	6938.441	6985	6938.441	-407.5	6938.441	2060
6938.442	3057.5	6938.442	6967.5	6938.442	-402.5	6938.442	2117.5
6938.443	3105	6938.443	6865	6938.443	-397.5	6938.443	2050
6938.444	3127.5	6938.444	6830	6938.444	-347.5	6938.444	1982.5
6938.445	3195	6938.445	6830	6938.445	-362.5	6938.445	2042.5
6938.446	3277.5	6938.446	6825	6938.446	-315	6938.446	2097.5
6938.447	3370	6938.447	6942.5	6938.447	-285	6938.447	2137.5
6938.448	3417.5	6938.448	6942.5	6938.448	-242.5	6938.448	2177.5
6938.449	3485	6938.449	6992.5	6938.449	-227.5	6938.449	2175
6938.45	3562.5	6938.45	6985	6938.45	-197.5	6938.45	2270
6938.451	3570	6938.451	7045	6938.451	-155	6938.451	2237.5
6938.452	3542.5	6938.452	7042.5	6938.452	-130	6938.452	2297.5
6938.453	3550	6938.453	7085	6938.453	-107.5	6938.453	2292.5
6938.454	3570	6938.454	6982.5	6938.454	-125	6938.454	2305
6938.455	3455	6938.455	6910	6938.455	-95	6938.455	2195
6938.456	3350	6938.456	6760	6938.456	-120	6938.456	2165
6938.457	3317.5	6938.457	6657.5	6938.457	-132.5	6938.457	2057.5
6938.458	3145	6938.458	6440	6938.458	-175	6938.458	1990
6938.459	2957.5	6938.459	6360	6938.459	-212.5	6938.459	1910
6938.46	2890	6938.46	6302.5	6938.46	-212.5	6938.46	1840
6938.461	2755	6938.461	6080	6938.461	-192.5	6938.461	1770
6938.462	2835	6938.462	6030	6938.462	-245	6938.462	1755
6938.463	2727.5	6938.463	5960	6938.463	-252.5	6938.463	1712.5
6938.464	2727.5	6938.464	5907.5	6938.464	-235	6938.464	1815
6938.465	2777.5	6938.465	5952.5	6938.465	-222.5	6938.465	1872.5
6938.466	2907.5	6938.466	6022.5	6938.466	-132.5	6938.466	1872.5
6938.467	2992.5	6938.467	6005	6938.467	-170	6938.467	1890
6938.468	3200	6938.468	6140	6938.468	-85	6938.468	2020
6938.469	3242.5	6938.469	6160	6938.469	-32.5	6938.469	1972.5
6938.47	3245	6938.47	6222.5	6938.47	22.5	6938.47	2037.5
6938.471	3347.5	6938.471	6250	6938.471	65	6938.471	2045
6938.472	3325	6938.472	6262.5	6938.472	47.5	6938.472	1995
6938.473	3305	6938.473	6310	6938.473	75	6938.473	2045
6938.474	3310	6938.474	6200	6938.474	47.5	6938.474	2052.5
6938.475	3207.5	6938.475	6065	6938.475	2.5	6938.475	1997.5
6938.476	3090	6938.476	6007.5	6938.476	57.5	6938.476	1945
6938.477	2985	6938.477	5877.5	6938.477	10	6938.477	1885
6938.478	2887.5	6938.478	5712.5	6938.478	-22.5	6938.478	1815
6938.479	2727.5	6938.479	5605	6938.479	-47.5	6938.479	1775
6938.48	2612.5	6938.48	5422.5	6938.48	-87.5	6938.48	1680
6938.481	2567.5	6938.481	5357.5	6938.481	-50	6938.481	1625
6938.482	2530	6938.482	5325	6938.482	-60	6938.482	1705
6938.483	2515	6938.483	5245	6938.483	-45	6938.483	1630
6938.484	2587.5	6938.484	5292.5	6938.484	-25	6938.484	1630
6938.485	2682.5	6938.485	5307.5	6938.485	32.5	6938.485	1690
6938.486	2815	6938.486	5317.5	6938.486	82.5	6938.486	1807.5
6938.487	2842.5	6938.487	5392.5	6938.487	77.5	6938.487	1807.5
6938.488	3022.5	6938.488	5487.5	6938.488	132.5	6938.488	1862.5
6938.489	3117.5	6938.489	5510	6938.489	110	6938.489	1827.5
6938.49	3255	6938.49	5490	6938.49	177.5	6938.49	1887.5
6938.491	3375	6938.491	5612.5	6938.491	170	6938.491	1942.5
6938.492	3230	6938.492	5622.5	6938.492	197.5	6938.492	1900
6938.493	3210	6938.493	5610	6938.493	195	6938.493	1975
6938.494	3085	6938.494	5525	6938.494	220	6938.494	1975
6938.495	2997.5	6938.495	5577.5	6938.495	145	6938.495	1977.5
6938.496	2967.5	6938.496	5462.5	6938.496	205	6938.496	1955
6938.497	2877.5	6938.497	5307.5	6938.497	135	6938.497	1897.5
6938.498	2720	6938.498	5205	6938.498	140	6938.498	1790
6938.499	2682.5	6938.499	5130	6938.499	142.5	6938.499	1722.5
6938.5	2565	6938.5	4892.5	6938.5	75	6938.5	1662.5
6938.501	2515	6938.501	4797.5	6938.501	87.5	6938.501	1575
6938.502	2472.5	6938.502	4770	6938.502	142.5	6938.502	1525
6938.503	2462.5	6938.503	4707.5	6938.503	127.5	6938.503	1485
6938.504	2497.5	6938.504	4695	6938.504	130	6938.504	1645
6938.505	2682.5	6938.505	4797.5	6938.505	182.5	6938.505	1670
6938.506	2650	6938.506	4855	6938.506	220	6938.506	1722.5
6938.507	2807.5	6938.507	4872.5	6938.507	215	6938.507	1817.5
6938.508	2920	6938.508	4987.5	6938.508	265	6938.508	1835
6938.509	3020	6938.509	5020	6938.509	350	6938.509	1905
6938.51	3107.5	6938.51	5035	6938.51	307.5	6938.51	1985
6938.511	3182.5	6938.511	5125	6938.511	360	6938.511	1960
6938.512	3177.5	6938.512	5107.5	6938.512	397.5	6938.512	1992.5
6938.513	3152.5	6938.513	5162.5	6938.513	352.5	6938.513	2030
6938.514	3152.5	6938.514	5157.5	6938.514	375	6938.514	2060
6938.515	3070	6938.515	5045	6938.515	362.5	6938.515	2015
6938.516	2952.5	6938.516	5015	6938.516	412.5	6938.516	2002.5
6938.517	2967.5	6938.517	4985	6938.517	367.5	6938.517	1962.5
6938.518	2785	6938.518	4867.5	6938.518	340	6938.518	1945
6938.519	2692.5	6938.519	4717.5	6938.519	365	6938.519	1880
6938.52	2582.5	6938.52	4570	6938.52	312.5	6938.52	1835
6938.521	2517.5	6938.521	4415	6938.521	290	6938.521	1765
6938.522	2572.5	6938.522	4417.5	6938.522	322.5	6938.522	1692.5
6938.523	2482.5	6938.523	4337.5	6938.523	310	6938.523	1675
6938.524	2527.5	6938.524	4310	6938.524	282.5	6938.524	1690
6938.525	2652.5	6938.525	4322.5	6938.525	307.5	6938.525	1727.5
6938.526	2805	6938.526	4462.5	6938.526	372.5	6938.526	1790
6938.527	2895	6938.527	4477.5	6938.527	392.5	6938.527	1937.5
6938.528	2975	6938.528	4547.5	6938.528	425	6938.528	1965
6938.529	3057.5	6938.529	4705	6938.529	500	6938.529	2070
6938.53	3140	6938.53	4760	6938.53	500	6938.53	2110
6938.531	3217.5	6938.531	4752.5	6938.531	510	6938.531	2172.5
6938.532	3200	6938.532	4775	6938.532	500	6938.532	2135
6938.533	3277.5	6938.533	4847.5	6938.533	555	6938.533	2215
6938.534	3250	6938.534	4855	6938.534	585	6938.534	2217.5
6938.535	3217.5	6938.535	4715	6938.535	535	6938.535	2127.5
6938.536	3145	6938.536	4690	6938.536	477.5	6938.536	2097.5
6938.537	2967.5	6938.537	4590	6938.537	530	6938.537	2047.5
6938.538	2890	6938.538	4452.5	6938.538	480	6938.538	2037.5
6938.539	2835	6938.539	4350	6938.539	470	6938.539	1952.5
6938.54	2745	6938.54	4195	6938.54	457.5	6938.54	1927.5
6938.541	2667.5	6938.541	4142.5	6938.541	452.5	6938.541	1855
6938.542	2622.5	6938.542	4175	6938.542	452.5	6938.542	1857.5
6938.543	2570	6938.543	4132.5	6938.543	432.5	6938.543	1872.5
6938.544	2542.5	6938.544	4127.5	6938.544	455	6938.544	1802.5
6938.545	2730	6938.545	4130	6938.545	520	6938.545	1920
6938.546	2860	6938.546	4217.5	6938.546	540	6938.546	1970
6938.547	2872.5	6938.547	4270	6938.547	550	6938.547	1990
6938.548	3142.5	6938.548	4340	6938.548	647.5	6938.548	2080
6938.549	3172.5	6938.549	4382.5	6938.549	610	6938.549	2105
6938.55	3192.5	6938.55	4492.5	6938.55	622.5	6938.55	2115
6938.551	3310	6938.551	4545	6938.551	647.5	6938.551	2192.5
6938.552	3262.5	6938.552	4582.5	6938.552	687.5	6938.552	2232.5
6938.553	3352.5	6938.553	4577.5	6938.553	672.5	6938.553	2262.5
6938.554	3397.5	6938.554	4582.5	6938.554	695	6938.554	2215
6938.555	3312.5	6938.555	4500	6938.555	670	6938.555	2215
6938.556	3215	6938.556	4400	6938.556	715	6938.556	2182.5
6938.557	3137.5	6938.557	4295	6938.557	725	6938.557	2187.5
6938.558	3010	6938.558	4112.5	6938.558	627.5	6938.558	2085
6938.559	2950	6938.559	4077.5	6938.559	677.5	6938.559	2022.5
6938.56	2917.5	6938.56	4007.5	6938.56	615	6938.56	1905
6938.561	2815	6938.561	3800	6938.561	557.5	6938.561	1850
6938.562	2830	6938.562	3795	6938.562	577.5	6938.562	1855
6938.563	2702.5	6938.563	3782.5	6938.563	595	6938.563	1832.5
6938.564	2810	6938.564	3832.5	6938.564	645	6938.564	1855
6938.565	2872.5	6938.565	3822.5	6938.565	625	6938.565	1930
6938.566	2940	6938.566	3877.5	6938.566	770	6938.566	2037.5
6938.567	3055	6938.567	3972.5	6938.567	752.5	6938.567	2002.5
6938.568	3215	6938.568	4087.5	6938.568	797.5	6938.568	2057.5
6938.569	3295	6938.569	4125	6938.569	790	6938.569	2097.5
6938.57	3445	6938.57	4195	6938.57	820	6938.57	2245
6938.571	3450	6938.571	4230	6938.571	897.5	6938.571	2230
6938.572	3465	6938.572	4222.5	6938.572	837.5	6938.572	2240
6938.573	3497.5	6938.573	4287.5	6938.573	840	6938.573	2250
6938.574	3467.5	6938.574	4235	6938.574	860	6938.574	2282.5
6938.575	3357.5	6938.575	4150	6938.575	787.5	6938.575	2232.5
6938.576	3285	6938.576	4090	6938.576	837.5	6938.576	2165
6938.577	3230	6938.577	3987.5	6938.577	810	6938.577	2137.5
6938.578	3005	6938.578	3867.5	6938.578	770	6938.578	1995
6938.579	3020	6938.579	3735	6938.579	817.5	6938.579	1977.5
6938.58	2967.5	6938.58	3652.5	6938.58	782.5	6938.58	1885
6938.581	2860	6938.581	3480	6938.581	747.5	6938.581	1780
6938.582	2847.5	6938.582	3460	6938.582	737.5	6938.582	1787.5
6938.583	2840	6938.583	3397.5	6938.583	735	6938.583	1687.5
6938.584	2792.5	6938.584	3430	6938.584	697.5	6938.584	1750
6938.585	2915	6938.585	3520	6938.585	787.5	6938.585	1832.5
6938.586	2972.5	6938.586	3565	6938.586	837.5	6938.586	1922.5
6938.587	3110	6938.587	3630	6938.587	837.5	6938.587	1942.5
6938.588	3350	6938.588	3717.5	6938.588	932.5	6938.588	2080
6938.589	3412.5	6938.589	3760	6938.589	892.5	6938.589	2075
6938.59	3432.5	6938.59	3830	6938.59	925	6938.59	2092.5
6938.591	3530	6938.591	3917.5	6938.591	945	6938.591	2167.5
6938.592	3477.5	6938.592	3935	6938.592	962.5	6938.592	2132.5
6938.593	3585	6938.593	3900	6938.593	960	6938.593	2157.5
6938.594	3535	6938.594	3902.5	6938.594	1017.5	6938.594	2082.5
6938.595	3462.5	6938.595	3830	6938.595	902.5	6938.595	2042.5
6938.596	3385	6938.596	3765	6938.596	940	6938.596	2067.5
6938.597	3270	6938.597	3585	6938.597	932.5	6938.597	1950
6938.598	3145	6938.598	3542.5	6938.598	860	6938.598	1890
6938.599	3167.5	6938.599	3410	6938.599	885	6938.599	1795
6938.6	2957.5	6938.6	3345	6938.6	825	6938.6	1802.5
6938.601	2882.5	6938.601	3212.5	6938.601	827.5	6938.601	1777.5
6938.602	2827.5	6938.602	3117.5	6938.602	870	6938.602	1742.5
6938.603	2740	6938.603	3012.5	6938.603	827.5	6938.603	1757.5
6938.604	2795	6938.604	3080	6938.604	867.5	6938.604	1670
6938.605	2897.5	6938.605	3177.5	6938.605	872.5	6938.605	1685
6938.606	2997.5	6938.606	3237.5	6938.606	902.5	6938.606	1787.5
6938.607	3175	6938.607	3295	6938.607	932.5	6938.607	1862.5
6938.608	3232.5	6938.608	3435	6938.608	967.5	6938.608	1917.5
6938.609	3270	6938.609	3542.5	6938.609	970	6938.609	1970
6938.61	3367.5	6938.61	3525	6938.61	1007.5	6938.61	1977.5
6938.611	3400	6938.611	3605	6938.611	997.5	6938.611	2117.5
6938.612	3355	6938.612	3615	6938.612	972.5	6938.612	2087.5
6938.613	3387.5	6938.613	3630	6938.613	1010	6938.613	2040
6938.614	3450	6938.614	3622.5	6938.614	1027.5	6938.614	2017.5
6938.615	3320	6938.615	3540	6938.615	982.5	6938.615	1997.5
6938.616	3212.5	6938.616	3470	6938.616	900	6938.616	1992.5
6938.617	3092.5	6938.617	3367.5	6938.617	825	6938.617	1865
6938.618	2985	6938.618	3277.5	6938.618	837.5	6938.618	1800
6938.619	2912.5	6938.619	3070	6938.619	840	6938.619	1695
6938.62	2770	6938.62	3010	6938.62	837.5	6938.62	1705
6938.621	2657.5	6938.621	2777.5	6938.621	772.5	6938.621	1605
6938.622	2602.5	6938.622	2730	6938.622	752.5	6938.622	1505
6938.623	2465	6938.623	2527.5	6938.623	672.5	6938.623	1430
6938.624	2590	6938.624	2650	6938.624	722.5	6938.624	1487.5
6938.625	2785	6938.625	2837.5	6938.625	907.5	6938.625	1697.5
6938.626	2870	6938.626	2867.5	6938.626	852.5	6938.626	1652.5
6938.627	2667.5	6938.627	2617.5	6938.627	572.5	6938.627	1387.5
6938.628	2680	6938.628	2632.5	6938.628	557.5	6938.628	1320
6938.629	2262.5	6938.629	2140	6938.629	-12.5	6938.629	957.5
6938.63	2145	6938.63	2062.5	6938.63	-152.5	6938.63	740
6938.631	2010	6938.631	2012.5	6938.631	-302.5	6938.631	665
6938.632	1105	6938.632	955	6938.632	-1457.5	6938.632	-390
6938.633	857.5	6938.633	812.5	6938.633	-1647.5	6938.633	-562.5
6938.634	1090	6938.634	1045	6938.634	-1317.5	6938.634	-245
6938.635	1122.5	6938.635	1200	6938.635	-1117.5	6938.635	-77.5
6938.636	995	6938.636	1132.5	6938.636	-1127.5	6938.636	-162.5
6938.637	1070	6938.637	1195	6938.637	-1005	6938.637	-55
6938.638	1557.5	6938.638	1755	6938.638	-292.5	6938.638	547.5
6938.639	1370	6938.639	1537.5	6938.639	-437.5	6938.639	365
6938.64	770	6938.64	925	6938.64	-1040	6938.64	-285
6938.641	400	6938.641	547.5	6938.641	-1392.5	6938.641	-610
6938.642	197.5	6938.642	340	6938.642	-1525	6938.642	-772.5
6938.643	102.5	6938.643	135	6938.643	-1625	6938.643	-895
6938.644	337.5	6938.644	440	6938.644	-1310	6938.644	-660
6938.645	420	6938.645	495	6938.645	-1322.5	6938.645	-597.5
6938.646	317.5	6938.646	340	6938.646	-1455	6938.646	-720
6938.647	410	6938.647	412.5	6938.647	-1425	6938.647	-680
6938.648	1060	6938.648	1070	6938.648	-830	6938.648	-80
6938.649	1707.5	6938.649	1687.5	6938.649	-175	6938.649	577.5
6938.65	2057.5	6938.65	2000	6938.65	67.5	6938.65	835
6938.651	2032.5	6938.651	1982.5	6938.651	-35	6938.651	770
6938.652	1877.5	6938.652	1802.5	6938.652	-232.5	6938.652	535
6938.653	1807.5	6938.653	1797.5	6938.653	-280	6938.653	575
6938.654	1765	6938.654	1760	6938.654	-310	6938.654	495
6938.655	1615	6938.655	1695	6938.655	-395	6938.655	402.5
6938.656	1550	6938.656	1560	6938.656	-442.5	6938.656	360
6938.657	1375	6938.657	1502.5	6938.657	-442.5	6938.657	310
6938.658	1325	6938.658	1302.5	6938.658	-515	6938.658	187.5
6938.659	1147.5	6938.659	1185	6938.659	-542.5	6938.659	90
6938.66	1065	6938.66	1082.5	6938.66	-592.5	6938.66	40
6938.661	957.5	6938.661	1037.5	6938.661	-582.5	6938.661	-37.5
6938.662	970	6938.662	977.5	6938.662	-577.5	6938.662	5
6938.663	825	6938.663	992.5	6938.663	-530	6938.663	-57.5
6938.664	837.5	6938.664	1037.5	6938.664	-550	6938.664	17.5
6938.665	1017.5	6938.665	1145	6938.665	-480	6938.665	105
6938.666	1077.5	6938.666	1257.5	6938.666	-435	6938.666	130
6938.667	1160	6938.667	1360	6938.667	-400	6938.667	132.5
6938.668	1325	6938.668	1435	6938.668	-357.5	6938.668	295
6938.669	1390	6938.669	1522.5	6938.669	-305	6938.669	360
6938.67	1537.5	6938.67	1535	6938.67	-260	6938.67	422.5
6938.671	1660	6938.671	1685	6938.671	-215	6938.671	505
6938.672	1640	6938.672	1725	6938.672	-162.5	6938.672	495
6938.673	1750	6938.673	1722.5	6938.673	-112.5	6938.673	512.5
6938.674	1775	6938.674	1842.5	6938.674	-95	6938.674	567.5
6938.675	1657.5	6938.675	1830	6938.675	-92.5	6938.675	565
6938.676	1570	6938.676	1702.5	6938.676	-117.5	6938.676	520
6938.677	1475	6938.677	1645	6938.677	-87.5	6938.677	517.5
6938.678	1312.5	6938.678	1555	6938.678	-77.5	6938.678	490
6938.679	1250	6938.679	1500	6938.679	-120	6938.679	485
6938.68	1102.5	6938.68	1377.5	6938.68	-177.5	6938.68	390
6938.681	1080	6938.681	1290	6938.681	-145	6938.681	370
6938.682	1032.5	6938.682	1317.5	6938.682	-102.5	6938.682	332.5
6938.683	1007.5	6938.683	1280	6938.683	-127.5	6938.683	305
6938.684	1122.5	6938.684	1350	6938.684	-65	6938.684	342.5
6938.685	1280	6938.685	1470	6938.685	-27.5	6938.685	467.5
6938.686	1350	6938.686	1502.5	6938.686	32.5	6938.686	572.5
6938.687	1532.5	6938.687	1675	6938.687	130	6938.687	715
6938.688	1655	6938.688	1805	6938.688	200	6938.688	735
6938.689	1770	6938.689	1907.5	6938.689	215	6938.689	837.5
6938.69	1782.5	6938.69	1920	6938.69	205	6938.69	920
6938.691	1930	6938.691	2032.5	6938.691	327.5	6938.691	992.5
6938.692	1947.5	6938.692	2040	6938.692	307.5	6938.692	1080
6938.693	2037.5	6938.693	2147.5	6938.693	340	6938.693	1097.5
6938.694	2025	6938.694	2220	6938.694	375	6938.694	1090
6938.695	1980	6938.695	2212.5	6938.695	350	6938.695	1105
6938.696	2010	6938.696	2112.5	6938.696	417.5	6938.696	1082.5
6938.697	1950	6938.697	2112.5	6938.697	462.5	6938.697	1022.5
6938.698	1780	6938.698	1972.5	6938.698	490	6938.698	1030
6938.699	1772.5	6938.699	2035	6938.699	560	6938.699	1002.5
6938.7	1675	6938.7	1915	6938.7	557.5	6938.7	1052.5
6938.701	1497.5	6938.701	1775	6938.701	542.5	6938.701	970
6938.702	1637.5	6938.702	2067.5	6938.702	727.5	6938.702	1225
6938.703	2270	6938.703	2662.5	6938.703	1287.5	6938.703	1870
6938.704	4107.5	6938.704	4257.5	6938.704	2715	6938.704	3367.5
6938.705	6410	6938.705	6075	6938.705	4040	6938.705	4867.5
6938.706	8242.5	6938.706	7020	6938.706	4215	6938.706	5387.5
6938.707	10725	6938.707	9115	6938.707	6075	6938.707	7132.5
6938.708	15050	6938.708	13940	6938.708	11497.5	6938.708	11155
6938.709	19257.5	6938.709	20077.5	6938.709	19867.5	6938.709	16327.5
6938.71	25495	6938.71	28495	6938.71	31767.5	6938.71	23282.5
6938.711	29147.5	6938.711	33557.5	6938.711	40760	6938.711	27472.5
6938.712	32265	6938.712	38445	6938.712	46995	6938.712	30785
6938.713	39035	6938.713	45007.5	6938.713	50235	6938.713	38642.5
6938.714	36427.5	6938.714	41965	6938.714	52792.5	6938.714	39967.5
6938.715	-7145	6938.715	-11640	6938.715	-2117.5	6938.715	11830
6938.716	-5667.5	6938.716	-6595	6938.716	-4577.5	6938.716	-8660
6938.717	-1442.5	6938.717	-3077.5	6938.717	-240	6938.717	-5852.5
6938.718	167.5	6938.718	-847.5	6938.718	1162.5	6938.718	-2777.5
6938.719	1080	6938.719	392.5	6938.719	1900	6938.719	-957.5
6938.72	1462.5	6938.72	1012.5	6938.72	2555	6938.72	47.5
6938.721	2567.5	6938.721	2237.5	6938.721	3985	6938.721	1450
6938.722	3282.5	6938.722	2862.5	6938.722	4842.5	6938.722	2305
6938.723	2597.5	6938.723	2095	6938.723	4267.5	6938.723	1750
6938.724	2422.5	6938.724	1982.5	6938.724	4640	6938.724	1745
6938.725	2150	6938.725	1815	6938.725	4775	6938.725	1657.5
6938.726	1697.5	6938.726	1247.5	6938.726	4652.5	6938.726	1100
6938.727	1040	6938.727	665	6938.727	4325	6938.727	550
6938.728	1077.5	6938.728	617.5	6938.728	4610	6938.728	532.5
6938.729	1275	6938.729	807.5	6938.729	5187.5	6938.729	675
6938.73	1745	6938.73	1287.5	6938.73	5895	6938.73	1090
6938.731	2210	6938.731	1820	6938.731	6672.5	6938.731	1545
6938.732	2582.5	6938.732	2422.5	6938.732	7375	6938.732	1970
6938.733	3120	6938.733	3195	6938.733	8172.5	6938.733	2490
6938.734	3752.5	6938.734	4042.5	6938.734	8877.5	6938.734	3122.5
6938.735	4255	6938.735	4740	6938.735	9512.5	6938.735	3630
6938.736	4817.5	6938.736	5537.5	6938.736	10010	6938.736	4180
6938.737	5425	6938.737	6355	6938.737	10412.5	6938.737	4760
6938.738	5692.5	6938.738	7075	6938.738	10762.5	6938.738	5197.5
6938.739	6147.5	6938.739	7672.5	6938.739	11010	6938.739	5695
6938.74	6525	6938.74	8265	6938.74	11112.5	6938.74	6032.5
6938.741	6697.5	6938.741	8672.5	6938.741	11117.5	6938.741	6377.5
6938.742	6895	6938.742	9027.5	6938.742	11060	6938.742	6665
6938.743	6890	6938.743	9240	6938.743	10910	6938.743	6845
6938.744	6932.5	6938.744	9277.5	6938.744	10647.5	6938.744	6930
6938.745	6847.5	6938.745	9227.5	6938.745	10472.5	6938.745	7012.5
6938.746	6770	6938.746	9142.5	6938.746	10175	6938.746	7075
6938.747	6690	6938.747	8920	6938.747	9892.5	6938.747	7032.5
6938.748	6527.5	6938.748	8677.5	6938.748	9540	6938.748	6987.5
6938.749	6275	6938.749	8352.5	6938.749	9212.5	6938.749	6762.5
6938.75	6022.5	6938.75	8055	6938.75	8910	6938.75	6530
6938.751	5770	6938.751	7697.5	6938.751	8507.5	6938.751	6205
6938.752	5385	6938.752	7352.5	6938.752	8115	6938.752	5835
6938.753	5092.5	6938.753	7085	6938.753	7735	6938.753	5400
6938.754	4677.5	6938.754	6702.5	6938.754	7362.5	6938.754	4945
6938.755	4125	6938.755	6317.5	6938.755	7002.5	6938.755	4475
6938.756	3732.5	6938.756	5897.5	6938.756	6612.5	6938.756	3897.5
6938.757	3187.5	6938.757	5452.5	6938.757	6230	6938.757	3380
6938.758	2697.5	6938.758	5052.5	6938.758	5867.5	6938.758	2845
6938.759	2237.5	6938.759	4592.5	6938.759	5497.5	6938.759	2292.5
6938.76	1842.5	6938.76	4232.5	6938.76	5192.5	6938.76	1785
6938.761	1457.5	6938.761	3807.5	6938.761	4842.5	6938.761	1240
6938.762	1197.5	6938.762	3600	6938.762	4585	6938.762	805
6938.763	805	6938.763	3290	6938.763	4320	6938.763	380
6938.764	567.5	6938.764	3047.5	6938.764	4035	6938.764	35
6938.765	365	6938.765	2842.5	6938.765	3862.5	6938.765	-227.5
6938.766	182.5	6938.766	2662.5	6938.766	3682.5	6938.766	-497.5
6938.767	35	6938.767	2470	6938.767	3460	6938.767	-715
6938.768	-15	6938.768	2235	6938.768	3280	6938.768	-842.5
6938.769	-227.5	6938.769	1980	6938.769	3092.5	6938.769	-1000
6938.77	-262.5	6938.77	1710	6938.77	2957.5	6938.77	-1155
6938.771	-307.5	6938.771	1422.5	6938.771	2822.5	6938.771	-1225
6938.772	-462.5	6938.772	917.5	6938.772	2560	6938.772	-1447.5
6938.773	-617.5	6938.773	402.5	6938.773	2410	6938.773	-1590
6938.774	-750	6938.774	-190	6938.774	2265	6938.774	-1805
6938.775	-975	6938.775	-945	6938.775	2085	6938.775	-1957.5
6938.776	-1227.5	6938.776	-1787.5	6938.776	1925	6938.776	-2155
6938.777	-1462.5	6938.777	-2662.5	6938.777	1772.5	6938.777	-2242.5
6938.778	-1685	6938.778	-3552.5	6938.778	1595	6938.778	-2457.5
6938.779	-1897.5	6938.779	-4387.5	6938.779	1492.5	6938.779	-2582.5
6938.78	-2112.5	6938.78	-5115	6938.78	1285	6938.78	-2782.5
6938.781	-2360	6938.781	-5805	6938.781	1170	6938.781	-3047.5
6938.782	-2515	6938.782	-6425	6938.782	995	6938.782	-3112.5
6938.783	-2605	6938.783	-6857.5	6938.783	890	6938.783	-3227.5
6938.784	-2647.5	6938.784	-7307.5	6938.784	822.5	6938.784	-3292.5
6938.785	-2642.5	6938.785	-7687.5	6938.785	767.5	6938.785	-3342.5
6938.786	-2695	6938.786	-7922.5	6938.786	685	6938.786	-3307.5
6938.787	-2697.5	6938.787	-8190	6938.787	630	6938.787	-3355
6938.788	-2672.5	6938.788	-8430	6938.788	525	6938.788	-3327.5
6938.789	-2720	6938.789	-8695	6938.789	480	6938.789	-3380
6938.79	-2702.5	6938.79	-8942.5	6938.79	400	6938.79	-3352.5
6938.791	-2687.5	6938.791	-9162.5	6938.791	357.5	6938.791	-3382.5
6938.792	-2665	6938.792	-9525	6938.792	265	6938.792	-3375
6938.793	-2720	6938.793	-9805	6938.793	162.5	6938.793	-3427.5
6938.794	-2827.5	6938.794	-10152.5	6938.794	70	6938.794	-3492.5
6938.795	-3092.5	6938.795	-10570	6938.795	-70	6938.795	-3525
6938.796	-3185	6938.796	-10985	6938.796	-167.5	6938.796	-3582.5
6938.797	-3365	6938.797	-11427.5	6938.797	-265	6938.797	-3665
6938.798	-3557.5	6938.798	-11815	6938.798	-415	6938.798	-3722.5
6938.799	-3735	6938.799	-12242.5	6938.799	-465	6938.799	-3732.5
6938.8	-3880	6938.8	-12687.5	6938.8	-587.5	6938.8	-3855
6938.801	-4077.5	6938.801	-13017.5	6938.801	-727.5	6938.801	-3975
6938.802	-4172.5	6938.802	-13365	6938.802	-812.5	6938.802	-3975
6938.803	-4320	6938.803	-13650	6938.803	-887.5	6938.803	-3992.5
6938.804	-4312.5	6938.804	-13932.5	6938.804	-920	6938.804	-4012.5
6938.805	-4360	6938.805	-14095	6938.805	-920	6938.805	-3912.5
6938.806	-4365	6938.806	-14265	6938.806	-935	6938.806	-3847.5
6938.807	-4290	6938.807	-14422.5	6938.807	-975	6938.807	-3777.5
6938.808	-4302.5	6938.808	-14582.5	6938.808	-1027.5	6938.808	-3747.5
6938.809	-4295	6938.809	-14730	6938.809	-1110	6938.809	-3657.5
6938.81	-4257.5	6938.81	-14857.5	6938.81	-1042.5	6938.81	-3645
6938.811	-4182.5	6938.811	-14957.5	6938.811	-1077.5	6938.811	-3627.5
6938.812	-4315	6938.812	-15092.5	6938.812	-1155	6938.812	-3540
6938.813	-4290	6938.813	-15180	6938.813	-1157.5	6938.813	-3457.5
6938.814	-4387.5	6938.814	-15340	6938.814	-1305	6938.814	-3437.5
6938.815	-4542.5	6938.815	-15585	6938.815	-1380	6938.815	-3525
6938.816	-4675	6938.816	-15800	6938.816	-1352.5	6938.816	-3470
6938.817	-4900	6938.817	-15990	6938.817	-1510	6938.817	-3495
6938.818	-5057.5	6938.818	-16212.5	6938.818	-1612.5	6938.818	-3500
6938.819	-5110	6938.819	-16465	6938.819	-1647.5	6938.819	-3507.5
6938.82	-5237.5	6938.82	-16667.5	6938.82	-1675	6938.82	-3570
6938.821	-5505	6938.821	-16890	6938.821	-1812.5	6938.821	-3627.5
6938.822	-5457.5	6938.822	-16982.5	6938.822	-1840	6938.822	-3642.5
6938.823	-5657.5	6938.823	-17055	6938.823	-1932.5	6938.823	-3645
6938.824	-5607.5	6938.824	-17147.5	6938.824	-1902.5	6938.824	-3615
6938.825	-5575	6938.825	-17235	6938.825	-1965	6938.825	-3617.5
6938.826	-5590	6938.826	-17177.5	6938.826	-1997.5	6938.826	-3477.5
6938.827	-5475	6938.827	-17115	6938.827	-2002.5	6938.827	-3397.5
6938.828	-5410	6938.828	-17057.5	6938.828	-1970	6938.828	-3322.5
6938.829	-5427.5	6938.829	-17002.5	6938.829	-2007.5	6938.829	-3190
6938.83	-5275	6938.83	-17045	6938.83	-2035	6938.83	-3097.5
6938.831	-5252.5	6938.831	-16982.5	6938.831	-2065	6938.831	-3017.5
6938.832	-5317.5	6938.832	-16905	6938.832	-2095	6938.832	-2987.5
6938.833	-5212.5	6938.833	-16855	6938.833	-2120	6938.833	-2945
6938.834	-5352.5	6938.834	-16945	6938.834	-2157.5	6938.834	-2932.5
6938.835	-5455	6938.835	-16965	6938.835	-2217.5	6938.835	-2885
6938.836	-5467.5	6938.836	-17037.5	6938.836	-2295	6938.836	-3005
6938.837	-5625	6938.837	-17105	6938.837	-2270	6938.837	-2990
6938.838	-5780	6938.838	-17192.5	6938.838	-2315	6938.838	-2997.5
6938.839	-5860	6938.839	-17277.5	6938.839	-2400	6938.839	-3090
6938.84	-6032.5	6938.84	-17385	6938.84	-2465	6938.84	-3177.5
6938.841	-6125	6938.841	-17487.5	6938.841	-2515	6938.841	-3307.5
6938.842	-6110	6938.842	-17415	6938.842	-2510	6938.842	-3260
6938.843	-6207.5	6938.843	-17520	6938.843	-2550	6938.843	-3302.5
6938.844	-6150	6938.844	-17455	6938.844	-2490	6938.844	-3295
6938.845	-6082.5	6938.845	-17387.5	6938.845	-2567.5	6938.845	-3267.5
6938.846	-6047.5	6938.846	-17265	6938.846	-2520	6938.846	-3227.5
6938.847	-5967.5	6938.847	-17165	6938.847	-2545	6938.847	-3132.5
6938.848	-5822.5	6938.848	-17000	6938.848	-2507.5	6938.848	-3062.5
6938.849	-5797.5	6938.849	-16872.5	6938.849	-2482.5	6938.849	-3015
6938.85	-5625	6938.85	-16735	6938.85	-2462.5	6938.85	-2940
6938.851	-5445	6938.851	-16600	6938.851	-2420	6938.851	-2905
6938.852	-5515	6938.852	-16587.5	6938.852	-2482.5	6938.852	-2905
6938.853	-5470	6938.853	-16532.5	6938.853	-2450	6938.853	-2947.5
6938.854	-5427.5	6938.854	-16497.5	6938.854	-2492.5	6938.854	-2885
6938.855	-5527.5	6938.855	-16452.5	6938.855	-2450	6938.855	-3017.5
6938.856	-5660	6938.856	-16397.5	6938.856	-2462.5	6938.856	-3032.5
6938.857	-5662.5	6938.857	-16495	6938.857	-2562.5	6938.857	-3100
6938.858	-5817.5	6938.858	-16582.5	6938.858	-2557.5	6938.858	-3240
6938.859	-5820	6938.859	-16572.5	6938.859	-2555	6938.859	-3300
6938.86	-5950	6938.86	-16645	6938.86	-2597.5	6938.86	-3360
6938.861	-6077.5	6938.861	-16625	6938.861	-2557.5	6938.861	-3410
6938.862	-6037.5	6938.862	-16680	6938.862	-2610	6938.862	-3497.5
6938.863	-6125	6938.863	-16647.5	6938.863	-2587.5	6938.863	-3495
6938.864	-6097.5	6938.864	-16557.5	6938.864	-2545	6938.864	-3495
6938.865	-5920	6938.865	-16475	6938.865	-2577.5	6938.865	-3495
6938.866	-5780	6938.866	-16312.5	6938.866	-2527.5	6938.866	-3390
6938.867	-5600	6938.867	-16210	6938.867	-2480	6938.867	-3387.5
6938.868	-5505	6938.868	-16085	6938.868	-2455	6938.868	-3385
6938.869	-5470	6938.869	-15995	6938.869	-2435	6938.869	-3315
6938.87	-5307.5	6938.87	-15890	6938.87	-2402.5	6938.87	-3292.5
6938.871	-5135	6938.871	-15725	6938.871	-2435	6938.871	-3232.5
6938.872	-5147.5	6938.872	-15635	6938.872	-2375	6938.872	-3320
6938.873	-5040	6938.873	-15562.5	6938.873	-2415	6938.873	-3282.5
6938.874	-5045	6938.874	-15535	6938.874	-2412.5	6938.874	-3262.5
6938.875	-5055	6938.875	-15557.5	6938.875	-2425	6938.875	-3327.5
6938.876	-5105	6938.876	-15580	6938.876	-2470	6938.876	-3430
6938.877	-5217.5	6938.877	-15537.5	6938.877	-2490	6938.877	-3477.5
6938.878	-5257.5	6938.878	-15622.5	6938.878	-2480	6938.878	-3500
6938.879	-5375	6938.879	-15732.5	6938.879	-2552.5	6938.879	-3655
6938.88	-5392.5	6938.88	-15737.5	6938.88	-2515	6938.88	-3650
6938.881	-5505	6938.881	-15835	6938.881	-2610	6938.881	-3805
6938.882	-5510	6938.882	-15807.5	6938.882	-2607.5	6938.882	-3795
6938.883	-5480	6938.883	-15787.5	6938.883	-2612.5	6938.883	-3722.5
6938.884	-5437.5	6938.884	-15782.5	6938.884	-2577.5	6938.884	-3725
6938.885	-5357.5	6938.885	-15682.5	6938.885	-2542.5	6938.885	-3695
6938.886	-5227.5	6938.886	-15570	6938.886	-2542.5	6938.886	-3610
6938.887	-5155	6938.887	-15445	6938.887	-2517.5	6938.887	-3600
6938.888	-4877.5	6938.888	-15275	6938.888	-2495	6938.888	-3520
6938.889	-4827.5	6938.889	-15190	6938.889	-2450	6938.889	-3545
6938.89	-4665	6938.89	-15115	6938.89	-2450	6938.89	-3502.5
6938.891	-4612.5	6938.891	-14852.5	6938.891	-2400	6938.891	-3432.5
6938.892	-4455	6938.892	-14832.5	6938.892	-2430	6938.892	-3400
6938.893	-4375	6938.893	-14712.5	6938.893	-2395	6938.893	-3382.5
6938.894	-4355	6938.894	-14637.5	6938.894	-2425	6938.894	-3382.5
6938.895	-4392.5	6938.895	-14662.5	6938.895	-2467.5	6938.895	-3360
6938.896	-4482.5	6938.896	-14652.5	6938.896	-2445	6938.896	-3445
6938.897	-4505	6938.897	-14697.5	6938.897	-2462.5	6938.897	-3495
6938.898	-4632.5	6938.898	-14747.5	6938.898	-2502.5	6938.898	-3565
6938.899	-4745	6938.899	-14850	6938.899	-2560	6938.899	-3605
6938.9	-4870	6938.9	-14812.5	6938.9	-2610	6938.9	-3697.5
6938.901	-4800	6938.901	-14825	6938.901	-2645	6938.901	-3650
6938.902	-4782.5	6938.902	-14777.5	6938.902	-2662.5	6938.902	-3692.5
6938.903	-4872.5	6938.903	-14815	6938.903	-2657.5	6938.903	-3742.5
6938.904	-4777.5	6938.904	-14700	6938.904	-2650	6938.904	-3810
6938.905	-4622.5	6938.905	-14622.5	6938.905	-2620	6938.905	-3722.5
6938.906	-4462.5	6938.906	-14472.5	6938.906	-2647.5	6938.906	-3695
6938.907	-4355	6938.907	-14310	6938.907	-2587.5	6938.907	-3660
6938.908	-4232.5	6938.908	-14092.5	6938.908	-2585	6938.908	-3510
6938.909	-4132.5	6938.909	-14007.5	6938.909	-2577.5	6938.909	-3410
6938.91	-3997.5	6938.91	-13752.5	6938.91	-2487.5	6938.91	-3330
6938.911	-3802.5	6938.911	-13705	6938.911	-2487.5	6938.911	-3282.5
6938.912	-3817.5	6938.912	-13560	6938.912	-2465	6938.912	-3302.5
6938.913	-3752.5	6938.913	-13475	6938.913	-2462.5	6938.913	-3267.5
6938.914	-3665	6938.914	-13410	6938.914	-2462.5	6938.914	-3240
6938.915	-3730	6938.915	-13325	6938.915	-2517.5	6938.915	-3250
6938.916	-3912.5	6938.916	-13292.5	6938.916	-2552.5	6938.916	-3257.5
6938.917	-3862.5	6938.917	-13287.5	6938.917	-2502.5	6938.917	-3200
6938.918	-3930	6938.918	-13325	6938.918	-2572.5	6938.918	-3275
6938.919	-4007.5	6938.919	-13335	6938.919	-2550	6938.919	-3325
6938.92	-4107.5	6938.92	-13332.5	6938.92	-2607.5	6938.92	-3405
6938.921	-4175	6938.921	-13392.5	6938.921	-2620	6938.921	-3455
6938.922	-4135	6938.922	-13265	6938.922	-2602.5	6938.922	-3450
6938.923	-4220	6938.923	-13275	6938.923	-2632.5	6938.923	-3597.5
6938.924	-4132.5	6938.924	-13182.5	6938.924	-2555	6938.924	-3490
6938.925	-3995	6938.925	-13102.5	6938.925	-2592.5	6938.925	-3455
6938.926	-3810	6938.926	-12875	6938.926	-2517.5	6938.926	-3367.5
6938.927	-3755	6938.927	-12752.5	6938.927	-2480	6938.927	-3335
6938.928	-3627.5	6938.928	-12512.5	6938.928	-2465	6938.928	-3237.5
6938.929	-3487.5	6938.929	-12362.5	6938.929	-2422.5	6938.929	-3217.5
6938.93	-3395	6938.93	-12142.5	6938.93	-2365	6938.93	-3085
6938.931	-3232.5	6938.931	-11927.5	6938.931	-2342.5	6938.931	-3037.5
6938.932	-3177.5	6938.932	-11835	6938.932	-2370	6938.932	-3025
6938.933	-3052.5	6938.933	-11685	6938.933	-2315	6938.933	-2935
6938.934	-3085	6938.934	-11610	6938.934	-2337.5	6938.934	-2955
6938.935	-3052.5	6938.935	-11570	6938.935	-2325	6938.935	-3010
6938.936	-3155	6938.936	-11567.5	6938.936	-2367.5	6938.936	-3087.5
6938.937	-3205	6938.937	-11532.5	6938.937	-2317.5	6938.937	-3010
6938.938	-3362.5	6938.938	-11520	6938.938	-2327.5	6938.938	-3232.5
6938.939	-3462.5	6938.939	-11475	6938.939	-2337.5	6938.939	-3247.5
6938.94	-3460	6938.94	-11500	6938.94	-2332.5	6938.94	-3327.5
6938.941	-3565	6938.941	-11435	6938.941	-2387.5	6938.941	-3352.5
6938.942	-3600	6938.942	-11350	6938.942	-2317.5	6938.942	-3422.5
6938.943	-3535	6938.943	-11317.5	6938.943	-2317.5	6938.943	-3477.5
6938.944	-3450	6938.944	-11170	6938.944	-2265	6938.944	-3422.5
6938.945	-3387.5	6938.945	-11015	6938.945	-2312.5	6938.945	-3355
6938.946	-3250	6938.946	-10787.5	6938.946	-2207.5	6938.946	-3365
6938.947	-3137.5	6938.947	-10597.5	6938.947	-2162.5	6938.947	-3280
6938.948	-3042.5	6938.948	-10340	6938.948	-2080	6938.948	-3227.5
6938.949	-2897.5	6938.949	-10122.5	6938.949	-2012.5	6938.949	-3192.5
6938.95	-2707.5	6938.95	-9870	6938.95	-2020	6938.95	-3175
6938.951	-2632.5	6938.951	-9595	6938.951	-1965	6938.951	-3007.5
6938.952	-2630	6938.952	-9335	6938.952	-1917.5	6938.952	-2977.5
6938.953	-2560	6938.953	-9150	6938.953	-1852.5	6938.953	-2935
6938.954	-2487.5	6938.954	-8937.5	6938.954	-1850	6938.954	-2925
6938.955	-2572.5	6938.955	-8777.5	6938.955	-1800	6938.955	-2972.5
6938.956	-2602.5	6938.956	-8645	6938.956	-1785	6938.956	-2907.5
6938.957	-2710	6938.957	-8510	6938.957	-1785	6938.957	-2872.5
6938.958	-2815	6938.958	-8405	6938.958	-1765	6938.958	-2932.5
6938.959	-2845	6938.959	-8312.5	6938.959	-1695	6938.959	-2835
6938.96	-2927.5	6938.96	-8185	6938.96	-1685	6938.96	-2867.5
6938.961	-2920	6938.961	-8052.5	6938.961	-1647.5	6938.961	-2777.5
6938.962	-2930	6938.962	-7835	6938.962	-1647.5	6938.962	-2762.5
6938.963	-2975	6938.963	-7717.5	6938.963	-1590	6938.963	-2760
6938.964	-2962.5	6938.964	-7432.5	6938.964	-1575	6938.964	-2592.5
6938.965	-2872.5	6938.965	-7165	6938.965	-1520	6938.965	-2495
6938.966	-2767.5	6938.966	-6830	6938.966	-1455	6938.966	-2337.5
6938.967	-2622.5	6938.967	-6467.5	6938.967	-1345	6938.967	-2192.5
6938.968	-2427.5	6938.968	-6030	6938.968	-1277.5	6938.968	-2065
6938.969	-2320	6938.969	-5660	6938.969	-1242.5	6938.969	-1927.5
6938.97	-2212.5	6938.97	-5167.5	6938.97	-1207.5	6938.97	-1802.5
6938.971	-2112.5	6938.971	-4682.5	6938.971	-1087.5	6938.971	-1657.5
6938.972	-2115	6938.972	-4202.5	6938.972	-1032.5	6938.972	-1555
6938.973	-1987.5	6938.973	-3665	6938.973	-982.5	6938.973	-1455
6938.974	-2015	6938.974	-3220	6938.974	-1005	6938.974	-1360
6938.975	-2070	6938.975	-2820	6938.975	-1027.5	6938.975	-1292.5
6938.976	-2147.5	6938.976	-2320	6938.976	-1012.5	6938.976	-1320
6938.977	-2222.5	6938.977	-1852.5	6938.977	-932.5	6938.977	-1267.5
6938.978	-2295	6938.978	-1430	6938.978	-997.5	6938.978	-1245
6938.979	-2377.5	6938.979	-887.5	6938.979	-982.5	6938.979	-1272.5
6938.98	-2500	6938.98	-405	6938.98	-960	6938.98	-1260
6938.981	-2662.5	6938.981	107.5	6938.981	-952.5	6938.981	-1270
6938.982	-2545	6938.982	737.5	6938.982	-930	6938.982	-1167.5
6938.983	-2632.5	6938.983	1282.5	6938.983	-907.5	6938.983	-1147.5
6938.984	-2585	6938.984	1885	6938.984	-870	6938.984	-990
6938.985	-2537.5	6938.985	2460	6938.985	-882.5	6938.985	-855
6938.986	-2282.5	6938.986	3065	6938.986	-780	6938.986	-755
6938.987	-2217.5	6938.987	3627.5	6938.987	-672.5	6938.987	-575
6938.988	-2022.5	6938.988	4110	6938.988	-665	6938.988	-410
6938.989	-1997.5	6938.989	4505	6938.989	-622.5	6938.989	-277.5
6938.99	-1877.5	6938.99	4962.5	6938.99	-585	6938.99	-135
6938.991	-1772.5	6938.991	5405	6938.991	-565	6938.991	45
6938.992	-1722.5	6938.992	5692.5	6938.992	-562.5	6938.992	40
6938.993	-1677.5	6938.993	6035	6938.993	-487.5	6938.993	167.5
6938.994	-1640	6938.994	6417.5	6938.994	-530	6938.994	250
6938.995	-1835	6938.995	6692.5	6938.995	-527.5	6938.995	302.5
6938.996	-1802.5	6938.996	6862.5	6938.996	-585	6938.996	277.5
6938.997	-1870	6938.997	7115	6938.997	-585	6938.997	340
6938.998	-2032.5	6938.998	7257.5	6938.998	-612.5	6938.998	375
6938.999	-2120	6938.999	7450	6938.999	-670	6938.999	392.5
6939	-2247.5	6939	7512.5	6939	-747.5	6939	355
6939.001	-2287.5	6939.001	7630	6939.001	-707.5	6939.001	360
6939.002	-2317.5	6939.002	7745	6939.002	-717.5	6939.002	502.5
6939.003	-2390	6939.003	7850	6939.003	-767.5	6939.003	545
6939.004	-2372.5	6939.004	8032.5	6939.004	-732.5	6939.004	615
6939.005	-2262.5	6939.005	8160	6939.005	-780	6939.005	710
6939.006	-2177.5	6939.006	8365	6939.006	-715	6939.006	880
6939.007	-2152.5	6939.007	8555	6939.007	-697.5	6939.007	1077.5
6939.008	-1987.5	6939.008	8770	6939.008	-695	6939.008	1190
6939.009	-1917.5	6939.009	8910	6939.009	-645	6939.009	1332.5
6939.01	-1737.5	6939.01	9040	6939.01	-620	6939.01	1527.5
6939.011	-1732.5	6939.011	9127.5	6939.011	-615	6939.011	1672.5
6939.012	-1617.5	6939.012	9240	6939.012	-610	6939.012	1802.5
6939.013	-1500	6939.013	9335	6939.013	-617.5	6939.013	1975
6939.014	-1565	6939.014	9295	6939.014	-645	6939.014	2060
6939.015	-1627.5	6939.015	9235	6939.015	-672.5	6939.015	2087.5
6939.016	-1762.5	6939.016	9172.5	6939.016	-700	6939.016	2125
6939.017	-1880	6939.017	9165	6939.017	-715	6939.017	2237.5
6939.018	-1927.5	6939.018	8992.5	6939.018	-797.5	6939.018	2317.5
6939.019	-2047.5	6939.019	8895	6939.019	-815	6939.019	2425
6939.02	-2065	6939.02	8770	6939.02	-855	6939.02	2487.5
6939.021	-2172.5	6939.021	8637.5	6939.021	-887.5	6939.021	2495
6939.022	-2135	6939.022	8592.5	6939.022	-872.5	6939.022	2682.5
6939.023	-2180	6939.023	8432.5	6939.023	-902.5	6939.023	2705
6939.024	-2150	6939.024	8407.5	6939.024	-877.5	6939.024	2800
6939.025	-2087.5	6939.025	8397.5	6939.025	-830	6939.025	2972.5
6939.026	-1950	6939.026	8435	6939.026	-860	6939.026	3062.5
6939.027	-1870	6939.027	8440	6939.027	-842.5	6939.027	3140
6939.028	-1632.5	6939.028	8530	6939.028	-790	6939.028	3237.5
6939.029	-1615	6939.029	8497.5	6939.029	-785	6939.029	3397.5
6939.03	-1462.5	6939.03	8595	6939.03	-750	6939.03	3402.5
6939.031	-1367.5	6939.031	8615	6939.031	-732.5	6939.031	3417.5
6939.032	-1317.5	6939.032	8575	6939.032	-775	6939.032	3477.5
6939.033	-1270	6939.033	8622.5	6939.033	-770	6939.033	3412.5
6939.034	-1175	6939.034	8535	6939.034	-715	6939.034	3487.5
6939.035	-1200	6939.035	8435	6939.035	-770	6939.035	3422.5
6939.036	-1315	6939.036	8325	6939.036	-775	6939.036	3385
6939.037	-1385	6939.037	8222.5	6939.037	-795	6939.037	3410
6939.038	-1535	6939.038	8092.5	6939.038	-832.5	6939.038	3305
6939.039	-1527.5	6939.039	7912.5	6939.039	-852.5	6939.039	3240
6939.04	-1642.5	6939.04	7702.5	6939.04	-895	6939.04	3277.5
6939.041	-1670	6939.041	7617.5	6939.041	-940	6939.041	3227.5
6939.042	-1712.5	6939.042	7512.5	6939.042	-947.5	6939.042	3210
6939.043	-1662.5	6939.043	7450	6939.043	-942.5	6939.043	3215
6939.044	-1632.5	6939.044	7440	6939.044	-940	6939.044	3262.5
6939.045	-1502.5	6939.045	7435	6939.045	-940	6939.045	3275
6939.046	-1377.5	6939.046	7480	6939.046	-900	6939.046	3360
6939.047	-1217.5	6939.047	7510	6939.047	-872.5	6939.047	3370
6939.048	-1102.5	6939.048	7592.5	6939.048	-817.5	6939.048	3440
6939.049	-975	6939.049	7645	6939.049	-785	6939.049	3412.5
6939.05	-775	6939.05	7732.5	6939.05	-797.5	6939.05	3532.5
6939.051	-660	6939.051	7882.5	6939.051	-775	6939.051	3500
6939.052	-580	6939.052	7847.5	6939.052	-812.5	6939.052	3497.5
6939.053	-392.5	6939.053	7930	6939.053	-762.5	6939.053	3462.5
6939.054	-400	6939.054	7912.5	6939.054	-770	6939.054	3482.5
6939.055	-440	6939.055	7847.5	6939.055	-795	6939.055	3390
6939.056	-435	6939.056	7720	6939.056	-792.5	6939.056	3315
6939.057	-460	6939.057	7672.5	6939.057	-845	6939.057	3245
6939.058	-440	6939.058	7497.5	6939.058	-847.5	6939.058	2977.5
6939.059	-470	6939.059	7345	6939.059	-890	6939.059	2902.5
6939.06	-500	6939.06	7252.5	6939.06	-887.5	6939.06	2817.5
6939.061	-465	6939.061	7167.5	6939.061	-930	6939.061	2725
6939.062	-450	6939.062	7075	6939.062	-902.5	6939.062	2657.5
6939.063	-427.5	6939.063	7047.5	6939.063	-925	6939.063	2592.5
6939.064	-345	6939.064	6950	6939.064	-925	6939.064	2492.5
6939.065	-195	6939.065	7007.5	6939.065	-907.5	6939.065	2472.5
6939.066	2.5	6939.066	7032.5	6939.066	-847.5	6939.066	2540
6939.067	205	6939.067	7180	6939.067	-860	6939.067	2505
6939.068	452.5	6939.068	7165	6939.068	-872.5	6939.068	2597.5
6939.069	600	6939.069	7232.5	6939.069	-827.5	6939.069	2570
6939.07	787.5	6939.07	7325	6939.07	-780	6939.07	2650
6939.071	987.5	6939.071	7425	6939.071	-770	6939.071	2667.5
6939.072	1017.5	6939.072	7332.5	6939.072	-812.5	6939.072	2580
6939.073	1145	6939.073	7452.5	6939.073	-755	6939.073	2535
6939.074	1262.5	6939.074	7422.5	6939.074	-770	6939.074	2525
6939.075	1237.5	6939.075	7355	6939.075	-760	6939.075	2387.5
6939.076	1130	6939.076	7275	6939.076	-795	6939.076	2370
6939.077	1227.5	6939.077	7170	6939.077	-775	6939.077	2352.5
6939.078	1130	6939.078	7020	6939.078	-860	6939.078	2217.5
6939.079	1067.5	6939.079	6930	6939.079	-902.5	6939.079	2097.5
6939.08	1130	6939.08	6752.5	6939.08	-935	6939.08	2020
6939.081	1085	6939.081	6625	6939.081	-950	6939.081	1935
6939.082	1142.5	6939.082	6607.5	6939.082	-895	6939.082	1847.5
6939.083	1187.5	6939.083	6510	6939.083	-927.5	6939.083	1802.5
6939.084	1302.5	6939.084	6507.5	6939.084	-930	6939.084	1775
6939.085	1432.5	6939.085	6620	6939.085	-882.5	6939.085	1825
6939.086	1527.5	6939.086	6600	6939.086	-875	6939.086	1837.5
6939.087	1705	6939.087	6622.5	6939.087	-877.5	6939.087	1895
6939.088	1950	6939.088	6742.5	6939.088	-815	6939.088	1910
6939.089	2067.5	6939.089	6735	6939.089	-782.5	6939.089	1945
6939.09	2212.5	6939.09	6977.5	6939.09	-787.5	6939.09	2020
6939.091	2342.5	6939.091	6960	6939.091	-757.5	6939.091	2025
6939.092	2450	6939.092	6972.5	6939.092	-757.5	6939.092	2040
6939.093	2532.5	6939.093	7065	6939.093	-747.5	6939.093	2060
6939.094	2582.5	6939.094	6985	6939.094	-710	6939.094	2105
6939.095	2522.5	6939.095	6920	6939.095	-807.5	6939.095	1930
6939.096	2470	6939.096	6827.5	6939.096	-817.5	6939.096	1947.5
6939.097	2382.5	6939.097	6777.5	6939.097	-837.5	6939.097	1885
6939.098	2260	6939.098	6597.5	6939.098	-835	6939.098	1742.5
6939.099	2190	6939.099	6537.5	6939.099	-860	6939.099	1737.5
6939.1	2102.5	6939.1	6380	6939.1	-847.5	6939.1	1610
6939.101	2027.5	6939.101	6282.5	6939.101	-907.5	6939.101	1627.5
6939.102	2055	6939.102	6265	6939.102	-912.5	6939.102	1587.5
6939.103	1965	6939.103	6192.5	6939.103	-900	6939.103	1510
6939.104	2022.5	6939.104	6175	6939.104	-895	6939.104	1532.5
6939.105	2107.5	6939.105	6172.5	6939.105	-815	6939.105	1535
6939.106	2257.5	6939.106	6212.5	6939.106	-802.5	6939.106	1607.5
6939.107	2387.5	6939.107	6252.5	6939.107	-755	6939.107	1647.5
6939.108	2622.5	6939.108	6350	6939.108	-665	6939.108	1747.5
6939.109	2710	6939.109	6270	6939.109	-670	6939.109	1712.5
6939.11	2792.5	6939.11	6382.5	6939.11	-735	6939.11	1752.5
6939.111	2927.5	6939.111	6442.5	6939.111	-665	6939.111	1792.5
6939.112	2932.5	6939.112	6417.5	6939.112	-677.5	6939.112	1790
6939.113	3032.5	6939.113	6485	6939.113	-682.5	6939.113	1767.5
6939.114	2997.5	6939.114	6475	6939.114	-602.5	6939.114	1787.5
6939.115	2907.5	6939.115	6397.5	6939.115	-712.5	6939.115	1700
6939.116	2700	6939.116	6272.5	6939.116	-750	6939.116	1627.5
6939.117	2687.5	6939.117	6235	6939.117	-730	6939.117	1637.5
6939.118	2432.5	6939.118	6092.5	6939.118	-800	6939.118	1545
6939.119	2355	6939.119	5932.5	6939.119	-772.5	6939.119	1402.5
6939.12	2250	6939.12	5910	6939.12	-800	6939.12	1422.5
6939.121	2077.5	6939.121	5642.5	6939.121	-920	6939.121	1277.5
6939.122	1972.5	6939.122	5572.5	6939.122	-1002.5	6939.122	1132.5
6939.123	1972.5	6939.123	5567.5	6939.123	-967.5	6939.123	1180
6939.124	2125	6939.124	5525	6939.124	-945	6939.124	1177.5
6939.125	1980	6939.125	5457.5	6939.125	-1047.5	6939.125	1122.5
6939.126	2062.5	6939.126	5495	6939.126	-1067.5	6939.126	1107.5
6939.127	2002.5	6939.127	5370	6939.127	-1172.5	6939.127	1025
6939.128	1687.5	6939.128	5070	6939.128	-1587.5	6939.128	632.5
6939.129	1682.5	6939.129	4967.5	6939.129	-1702.5	6939.129	577.5
6939.13	1475	6939.13	4700	6939.13	-2032.5	6939.13	282.5
6939.131	737.5	6939.131	3902.5	6939.131	-2915	6939.131	-505
6939.132	475	6939.132	3697.5	6939.132	-3125	6939.132	-765
6939.133	585	6939.133	3912.5	6939.133	-2887.5	6939.133	-527.5
6939.134	665	6939.134	4032.5	6939.134	-2740	6939.134	-370
6939.135	375	6939.135	3760	6939.135	-2950	6939.135	-640
6939.136	567.5	6939.136	3935	6939.136	-2707.5	6939.136	-357.5
6939.137	630	6939.137	3997.5	6939.137	-2480	6939.137	-230
6939.138	522.5	6939.138	4012.5	6939.138	-2397.5	6939.138	-280
6939.139	575	6939.139	3955	6939.139	-2315	6939.139	-220
6939.14	137.5	6939.14	3617.5	6939.14	-2625	6939.14	-570
6939.141	-17.5	6939.141	3402.5	6939.141	-2742.5	6939.141	-650
6939.142	387.5	6939.142	3867.5	6939.142	-2192.5	6939.142	-130
6939.143	757.5	6939.143	4140	6939.143	-1807.5	6939.143	172.5
6939.144	277.5	6939.144	3685	6939.144	-2337.5	6939.144	-327.5
6939.145	-95	6939.145	3285	6939.145	-2740	6939.145	-692.5
6939.146	335	6939.146	3765	6939.146	-2190	6939.146	-197.5
6939.147	937.5	6939.147	4420	6939.147	-1690	6939.147	400
6939.148	1635	6939.148	5005	6939.148	-1067.5	6939.148	1062.5
6939.149	1537.5	6939.149	4922.5	6939.149	-1217.5	6939.149	947.5
6939.15	1465	6939.15	4857.5	6939.15	-1377.5	6939.15	757.5
6939.151	1380	6939.151	4657.5	6939.151	-1640	6939.151	565
6939.152	1232.5	6939.152	4540	6939.152	-1712.5	6939.152	485
6939.153	1280	6939.153	4515	6939.153	-1750	6939.153	470
6939.154	1125	6939.154	4530	6939.154	-1815	6939.154	425
6939.155	1000	6939.155	4475	6939.155	-1830	6939.155	380
6939.156	835	6939.156	4282.5	6939.156	-1932.5	6939.156	242.5
6939.157	707.5	6939.157	4132.5	6939.157	-1982.5	6939.157	247.5
6939.158	547.5	6939.158	4012.5	6939.158	-2055	6939.158	72.5
6939.159	465	6939.159	3877.5	6939.159	-2077.5	6939.159	62.5
6939.16	330	6939.16	3722.5	6939.16	-2082.5	6939.16	-5
6939.161	230	6939.161	3647.5	6939.161	-2110	6939.161	7.5
6939.162	170	6939.162	3602.5	6939.162	-2067.5	6939.162	15
6939.163	97.5	6939.163	3547.5	6939.163	-2077.5	6939.163	-87.5
6939.164	135	6939.164	3545	6939.164	-2020	6939.164	-85
6939.165	165	6939.165	3607.5	6939.165	-1982.5	6939.165	-40
6939.166	140	6939.166	3755	6939.166	-1910	6939.166	137.5
6939.167	277.5	6939.167	3860	6939.167	-1887.5	6939.167	177.5
6939.168	437.5	6939.168	3935	6939.168	-1795	6939.168	285
6939.169	537.5	6939.169	4067.5	6939.169	-1777.5	6939.169	352.5
6939.17	577.5	6939.17	4185	6939.17	-1705	6939.17	492.5
6939.171	707.5	6939.171	4290	6939.171	-1632.5	6939.171	520
6939.172	727.5	6939.172	4345	6939.172	-1632.5	6939.172	562.5
6939.173	887.5	6939.173	4470	6939.173	-1552.5	6939.173	690
6939.174	842.5	6939.174	4505	6939.174	-1527.5	6939.174	712.5
6939.175	797.5	6939.175	4462.5	6939.175	-1475	6939.175	742.5
6939.176	702.5	6939.176	4397.5	6939.176	-1527.5	6939.176	667.5
6939.177	640	6939.177	4315	6939.177	-1450	6939.177	632.5
6939.178	487.5	6939.178	4247.5	6939.178	-1490	6939.178	612.5
6939.179	487.5	6939.179	4197.5	6939.179	-1457.5	6939.179	562.5
6939.18	327.5	6939.18	4047.5	6939.18	-1482.5	6939.18	467.5
6939.181	215	6939.181	3992.5	6939.181	-1507.5	6939.181	480
6939.182	240	6939.182	4007.5	6939.182	-1512.5	6939.182	437.5
6939.183	212.5	6939.183	3982.5	6939.183	-1430	6939.183	560
6939.184	210	6939.184	3990	6939.184	-1402.5	6939.184	547.5
6939.185	250	6939.185	4110	6939.185	-1300	6939.185	632.5
6939.186	382.5	6939.186	4245	6939.186	-1242.5	6939.186	727.5
6939.187	470	6939.187	4340	6939.187	-1207.5	6939.187	910
6939.188	702.5	6939.188	4525	6939.188	-1110	6939.188	977.5
6939.189	790	6939.189	4717.5	6939.189	-1052.5	6939.189	1055
6939.19	847.5	6939.19	4732.5	6939.19	-1015	6939.19	1165
6939.191	1012.5	6939.191	4885	6939.191	-937.5	6939.191	1247.5
6939.192	1080	6939.192	4905	6939.192	-902.5	6939.192	1275
6939.193	1177.5	6939.193	5065	6939.193	-820	6939.193	1392.5
6939.194	1247.5	6939.194	5075	6939.194	-780	6939.194	1447.5
6939.195	1225	6939.195	5140	6939.195	-767.5	6939.195	1385
6939.196	1165	6939.196	5087.5	6939.196	-735	6939.196	1467.5
6939.197	1115	6939.197	5080	6939.197	-677.5	6939.197	1452.5
6939.198	1105	6939.198	4947.5	6939.198	-697.5	6939.198	1507.5
6939.199	997.5	6939.199	4990	6939.199	-597.5	6939.199	1525
6939.2	915	6939.2	4877.5	6939.2	-617.5	6939.2	1455
6939.201	752.5	6939.201	4880	6939.201	-492.5	6939.201	1457.5
6939.202	987.5	6939.202	4970	6939.202	-367.5	6939.202	1727.5
6939.203	2542.5	6939.203	6597.5	6939.203	1180	6939.203	3265
6939.204	4225	6939.204	7930	6939.204	2157.5	6939.204	4450
6939.205	6835	6939.205	9912.5	6939.205	3470	6939.205	5997.5
6939.206	8435	6939.206	10725	6939.206	3550	6939.206	6360
6939.207	12345	6939.207	14605	6939.207	7625	6939.207	9767.5
6939.208	16735	6939.208	20040	6939.208	14422.5	6939.208	14280
6939.209	22465	6939.209	28092.5	6939.209	25160	6939.209	20817.5
6939.21	28080	6939.21	35205	6939.21	36375	6939.21	27145
6939.211	31085	6939.211	39275	6939.211	43435	6939.211	29910
6939.212	37010	6939.212	46657.5	6939.212	49675	6939.212	36425
6939.213	41952.5	6939.213	52957.5	6939.213	53510	6939.213	44305
6939.214	14410	6939.214	27015	6939.214	44965	6939.214	37637.5
6939.215	-7477.5	6939.215	-5800	6939.215	-10035	6939.215	-6845
6939.216	-3657.5	6939.216	-2332.5	6939.216	-2370	6939.216	-7432.5
6939.217	-1062.5	6939.217	895	6939.217	-505	6939.217	-3700
6939.218	-60	6939.218	2255	6939.218	160	6939.218	-1390
6939.219	167.5	6939.219	2905	6939.219	557.5	6939.219	-375
6939.22	877.5	6939.22	3712.5	6939.22	1475	6939.22	760
6939.221	1915	6939.221	4685	6939.221	2807.5	6939.221	1955
6939.222	1850	6939.222	4522.5	6939.222	2717.5	6939.222	2010
6939.223	1417.5	6939.223	4087.5	6939.223	2542.5	6939.223	1615
6939.224	1532.5	6939.224	4192.5	6939.224	3130	6939.224	1825
6939.225	1340	6939.225	3897.5	6939.225	3185	6939.225	1610
6939.226	805	6939.226	3207.5	6939.226	2782.5	6939.226	982.5
6939.227	557.5	6939.227	2907.5	6939.227	2767.5	6939.227	690
6939.228	625	6939.228	2950	6939.228	3127.5	6939.228	797.5
6939.229	947.5	6939.229	3310	6939.229	3802.5	6939.229	1110
6939.23	1290	6939.23	3670	6939.23	4422.5	6939.23	1335
6939.231	1710	6939.231	4135	6939.231	5025	6939.231	1605
6939.232	2115	6939.232	4607.5	6939.232	5730	6939.232	1945
6939.233	2485	6939.233	5207.5	6939.233	6455	6939.233	2347.5
6939.234	3050	6939.234	5945	6939.234	7187.5	6939.234	2830
6939.235	3535	6939.235	6642.5	6939.235	7812.5	6939.235	3280
6939.236	4085	6939.236	7390	6939.236	8417.5	6939.236	3822.5
6939.237	4590	6939.237	8117.5	6939.237	8910	6939.237	4365
6939.238	5067.5	6939.238	8762.5	6939.238	9330	6939.238	4900
6939.239	5520	6939.239	9385	6939.239	9700	6939.239	5365
6939.24	5932.5	6939.24	9877.5	6939.24	9970	6939.24	5902.5
6939.241	6340	6939.241	10285	6939.241	10155	6939.241	6385
6939.242	6650	6939.242	10632.5	6939.242	10195	6939.242	6800
6939.243	6875	6939.243	10747.5	6939.243	10210	6939.243	7145
6939.244	7037.5	6939.244	10882.5	6939.244	10157.5	6939.244	7430
6939.245	7140	6939.245	10837.5	6939.245	10022.5	6939.245	7692.5
6939.246	7135	6939.246	10660	6939.246	9877.5	6939.246	7802.5
6939.247	7180	6939.247	10522.5	6939.247	9680	6939.247	7840
6939.248	7167.5	6939.248	10365	6939.248	9375	6939.248	7695
6939.249	6930	6939.249	10075	6939.249	9132.5	6939.249	7497.5
6939.25	6822.5	6939.25	9872.5	6939.25	8820	6939.25	7247.5
6939.251	6647.5	6939.251	9635	6939.251	8495	6939.251	7012.5
6939.252	6360	6939.252	9297.5	6939.252	8140	6939.252	6662.5
6939.253	6077.5	6939.253	8942.5	6939.253	7867.5	6939.253	6267.5
6939.254	5650	6939.254	8587.5	6939.254	7480	6939.254	5795
6939.255	5217.5	6939.255	8220	6939.255	7095	6939.255	5305
6939.256	4800	6939.256	7637.5	6939.256	6697.5	6939.256	4817.5
6939.257	4300	6939.257	7152.5	6939.257	6287.5	6939.257	4367.5
6939.258	3732.5	6939.258	6650	6939.258	5945	6939.258	3827.5
6939.259	3375	6939.259	6177.5	6939.259	5602.5	6939.259	3397.5
6939.26	2925	6939.26	5702.5	6939.26	5230	6939.26	2947.5
6939.261	2445	6939.261	5207.5	6939.261	4935	6939.261	2577.5
6939.262	2175	6939.262	4902.5	6939.262	4637.5	6939.262	2125
6939.263	1822.5	6939.263	4557.5	6939.263	4292.5	6939.263	1795
6939.264	1562.5	6939.264	4187.5	6939.264	4087.5	6939.264	1502.5
6939.265	1245	6939.265	3975	6939.265	3825	6939.265	1265
6939.266	1070	6939.266	3687.5	6939.266	3570	6939.266	1012.5
6939.267	957.5	6939.267	3317.5	6939.267	3382.5	6939.267	750
6939.268	867.5	6939.268	3075	6939.268	3187.5	6939.268	497.5
6939.269	695	6939.269	2657.5	6939.269	2972.5	6939.269	295
6939.27	552.5	6939.27	2202.5	6939.27	2770	6939.27	87.5
6939.271	520	6939.271	1762.5	6939.271	2607.5	6939.271	-40
6939.272	282.5	6939.272	1240	6939.272	2485	6939.272	-257.5
6939.273	167.5	6939.273	877.5	6939.273	2272.5	6939.273	-487.5
6939.274	-77.5	6939.274	395	6939.274	2127.5	6939.274	-770
6939.275	-302.5	6939.275	-130	6939.275	1900	6939.275	-1027.5
6939.276	-582.5	6939.276	-577.5	6939.276	1765	6939.276	-1200
6939.277	-727.5	6939.277	-1007.5	6939.277	1592.5	6939.277	-1450
6939.278	-1002.5	6939.278	-1540	6939.278	1432.5	6939.278	-1685
6939.279	-1272.5	6939.279	-2045	6939.279	1302.5	6939.279	-1862.5
6939.28	-1577.5	6939.28	-2597.5	6939.28	1127.5	6939.28	-2162.5
6939.281	-1775	6939.281	-3025	6939.281	1005	6939.281	-2350
6939.282	-1897.5	6939.282	-3425	6939.282	895	6939.282	-2582.5
6939.283	-2155	6939.283	-3912.5	6939.283	802.5	6939.283	-2690
6939.284	-2227.5	6939.284	-4407.5	6939.284	637.5	6939.284	-2747.5
6939.285	-2242.5	6939.285	-4847.5	6939.285	547.5	6939.285	-2960
6939.286	-2335	6939.286	-5202.5	6939.286	502.5	6939.286	-2877.5
6939.287	-2305	6939.287	-5602.5	6939.287	407.5	6939.287	-2987.5
6939.288	-2290	6939.288	-5962.5	6939.288	362.5	6939.288	-3045
6939.289	-2302.5	6939.289	-6410	6939.289	237.5	6939.289	-3100
6939.29	-2362.5	6939.29	-6772.5	6939.29	220	6939.29	-3145
6939.291	-2335	6939.291	-7162.5	6939.291	162.5	6939.291	-3162.5
6939.292	-2455	6939.292	-7567.5	6939.292	60	6939.292	-3252.5
6939.293	-2450	6939.293	-7965	6939.293	0	6939.293	-3245
6939.294	-2530	6939.294	-8387.5	6939.294	-67.5	6939.294	-3280
6939.295	-2697.5	6939.295	-8902.5	6939.295	-167.5	6939.295	-3307.5
6939.296	-2895	6939.296	-9292.5	6939.296	-252.5	6939.296	-3377.5
6939.297	-3112.5	6939.297	-9790	6939.297	-327.5	6939.297	-3465
6939.298	-3367.5	6939.298	-10305	6939.298	-427.5	6939.298	-3590
6939.299	-3450	6939.299	-10807.5	6939.299	-570	6939.299	-3682.5
6939.3	-3695	6939.3	-11185	6939.3	-660	6939.3	-3767.5
6939.301	-3920	6939.301	-11652.5	6939.301	-725	6939.301	-3890
6939.302	-4022.5	6939.302	-11940	6939.302	-810	6939.302	-3865
6939.303	-4115	6939.303	-12307.5	6939.303	-850	6939.303	-4000
6939.304	-4200	6939.304	-12647.5	6939.304	-937.5	6939.304	-3985
6939.305	-4172.5	6939.305	-12817.5	6939.305	-960	6939.305	-4037.5
6939.306	-4257.5	6939.306	-12970	6939.306	-1050	6939.306	-4032.5
6939.307	-4190	6939.307	-13140	6939.307	-1077.5	6939.307	-3977.5
6939.308	-4047.5	6939.308	-13225	6939.308	-1097.5	6939.308	-3917.5
6939.309	-4127.5	6939.309	-13347.5	6939.309	-1135	6939.309	-3850
6939.31	-4117.5	6939.31	-13465	6939.31	-1185	6939.31	-3835
6939.311	-4117.5	6939.311	-13545	6939.311	-1242.5	6939.311	-3847.5
6939.312	-4147.5	6939.312	-13655	6939.312	-1297.5	6939.312	-3812.5
6939.313	-4110	6939.313	-13727.5	6939.313	-1267.5	6939.313	-3825
6939.314	-4185	6939.314	-13870	6939.314	-1420	6939.314	-3815
6939.315	-4280	6939.315	-14065	6939.315	-1415	6939.315	-3810
6939.316	-4455	6939.316	-14227.5	6939.316	-1502.5	6939.316	-3812.5
6939.317	-4635	6939.317	-14500	6939.317	-1607.5	6939.317	-3882.5
6939.318	-4800	6939.318	-14710	6939.318	-1722.5	6939.318	-3940
6939.319	-4985	6939.319	-14860	6939.319	-1717.5	6939.319	-3962.5
6939.32	-5090	6939.32	-15070	6939.32	-1810	6939.32	-4032.5
6939.321	-5257.5	6939.321	-15277.5	6939.321	-1912.5	6939.321	-4125
6939.322	-5340	6939.322	-15377.5	6939.322	-1945	6939.322	-4060
6939.323	-5432.5	6939.323	-15527.5	6939.323	-2080	6939.323	-4080
6939.324	-5465	6939.324	-15535	6939.324	-2120	6939.324	-4125
6939.325	-5430	6939.325	-15650	6939.325	-2187.5	6939.325	-4077.5
6939.326	-5405	6939.326	-15657.5	6939.326	-2127.5	6939.326	-3972.5
6939.327	-5315	6939.327	-15622.5	6939.327	-2170	6939.327	-3907.5
6939.328	-5197.5	6939.328	-15440	6939.328	-2157.5	6939.328	-3812.5
6939.329	-5177.5	6939.329	-15377.5	6939.329	-2212.5	6939.329	-3797.5
6939.33	-5047.5	6939.33	-15350	6939.33	-2215	6939.33	-3620
6939.331	-4900	6939.331	-15280	6939.331	-2225	6939.331	-3655
6939.332	-4827.5	6939.332	-15210	6939.332	-2227.5	6939.332	-3505
6939.333	-4860	6939.333	-15265	6939.333	-2230	6939.333	-3490
6939.334	-4892.5	6939.334	-15167.5	6939.334	-2267.5	6939.334	-3472.5
6939.335	-4900	6939.335	-15177.5	6939.335	-2367.5	6939.335	-3420
6939.336	-5037.5	6939.336	-15240	6939.336	-2335	6939.336	-3467.5
6939.337	-5122.5	6939.337	-15310	6939.337	-2420	6939.337	-3432.5
6939.338	-5232.5	6939.338	-15392.5	6939.338	-2420	6939.338	-3470
6939.339	-5382.5	6939.339	-15422.5	6939.339	-2482.5	6939.339	-3547.5
6939.34	-5437.5	6939.34	-15537.5	6939.34	-2525	6939.34	-3622.5
6939.341	-5567.5	6939.341	-15590	6939.341	-2577.5	6939.341	-3642.5
6939.342	-5617.5	6939.342	-15605	6939.342	-2617.5	6939.342	-3657.5
6939.343	-5637.5	6939.343	-15542.5	6939.343	-2605	6939.343	-3662.5
6939.344	-5630	6939.344	-15507.5	6939.344	-2570	6939.344	-3525
6939.345	-5630	6939.345	-15497.5	6939.345	-2592.5	6939.345	-3472.5
6939.346	-5490	6939.346	-15357.5	6939.346	-2552.5	6939.346	-3442.5
6939.347	-5415	6939.347	-15165	6939.347	-2485	6939.347	-3345
6939.348	-5215	6939.348	-15030	6939.348	-2475	6939.348	-3355
6939.349	-5225	6939.349	-14940	6939.349	-2460	6939.349	-3362.5
6939.35	-5042.5	6939.35	-14752.5	6939.35	-2440	6939.35	-3335
6939.351	-4947.5	6939.351	-14607.5	6939.351	-2437.5	6939.351	-3307.5
6939.352	-4910	6939.352	-14572.5	6939.352	-2455	6939.352	-3362.5
6939.353	-4822.5	6939.353	-14430	6939.353	-2410	6939.353	-3340
6939.354	-4870	6939.354	-14430	6939.354	-2447.5	6939.354	-3390
6939.355	-4920	6939.355	-14405	6939.355	-2425	6939.355	-3440
6939.356	-4907.5	6939.356	-14435	6939.356	-2445	6939.356	-3495
6939.357	-5002.5	6939.357	-14350	6939.357	-2475	6939.357	-3595
6939.358	-5090	6939.358	-14467.5	6939.358	-2470	6939.358	-3670
6939.359	-5195	6939.359	-14482.5	6939.359	-2567.5	6939.359	-3837.5
6939.36	-5250	6939.36	-14520	6939.36	-2500	6939.36	-3972.5
6939.361	-5390	6939.361	-14582.5	6939.361	-2542.5	6939.361	-4100
6939.362	-5347.5	6939.362	-14552.5	6939.362	-2512.5	6939.362	-4147.5
6939.363	-5360	6939.363	-14537.5	6939.363	-2515	6939.363	-4127.5
6939.364	-5407.5	6939.364	-14545	6939.364	-2510	6939.364	-4110
6939.365	-5310	6939.365	-14407.5	6939.365	-2447.5	6939.365	-4155
6939.366	-5157.5	6939.366	-14292.5	6939.366	-2457.5	6939.366	-4157.5
6939.367	-5032.5	6939.367	-14142.5	6939.367	-2415	6939.367	-4102.5
6939.368	-4815	6939.368	-14017.5	6939.368	-2325	6939.368	-4105
6939.369	-4702.5	6939.369	-13887.5	6939.369	-2305	6939.369	-4160
6939.37	-4605	6939.37	-13787.5	6939.37	-2275	6939.37	-4190
6939.371	-4457.5	6939.371	-13555	6939.371	-2237.5	6939.371	-4170
6939.372	-4350	6939.372	-13475	6939.372	-2232.5	6939.372	-4140
6939.373	-4232.5	6939.373	-13345	6939.373	-2242.5	6939.373	-4212.5
6939.374	-4215	6939.374	-13367.5	6939.374	-2277.5	6939.374	-4277.5
6939.375	-4270	6939.375	-13245	6939.375	-2232.5	6939.375	-4362.5
6939.376	-4295	6939.376	-13327.5	6939.376	-2277.5	6939.376	-4417.5
6939.377	-4295	6939.377	-13372.5	6939.377	-2292.5	6939.377	-4485
6939.378	-4455	6939.378	-13462.5	6939.378	-2312.5	6939.378	-4560
6939.379	-4470	6939.379	-13442.5	6939.379	-2295	6939.379	-4650
6939.38	-4457.5	6939.38	-13490	6939.38	-2327.5	6939.38	-4712.5
6939.381	-4562.5	6939.381	-13502.5	6939.381	-2372.5	6939.381	-4817.5
6939.382	-4570	6939.382	-13547.5	6939.382	-2317.5	6939.382	-4955
6939.383	-4600	6939.383	-13557.5	6939.383	-2385	6939.383	-4945
6939.384	-4515	6939.384	-13480	6939.384	-2395	6939.384	-4977.5
6939.385	-4472.5	6939.385	-13412.5	6939.385	-2385	6939.385	-5030
6939.386	-4347.5	6939.386	-13267.5	6939.386	-2277.5	6939.386	-4975
6939.387	-4130	6939.387	-13180	6939.387	-2262.5	6939.387	-5002.5
6939.388	-4037.5	6939.388	-13010	6939.388	-2287.5	6939.388	-5030
6939.389	-3960	6939.389	-12930	6939.389	-2232.5	6939.389	-4992.5
6939.39	-3767.5	6939.39	-12780	6939.39	-2220	6939.39	-4960
6939.391	-3635	6939.391	-12605	6939.391	-2197.5	6939.391	-4940
6939.392	-3627.5	6939.392	-12577.5	6939.392	-2167.5	6939.392	-4920
6939.393	-3552.5	6939.393	-12495	6939.393	-2172.5	6939.393	-4922.5
6939.394	-3530	6939.394	-12375	6939.394	-2125	6939.394	-4947.5
6939.395	-3467.5	6939.395	-12327.5	6939.395	-2170	6939.395	-4845
6939.396	-3540	6939.396	-12327.5	6939.396	-2190	6939.396	-4870
6939.397	-3695	6939.397	-12385	6939.397	-2197.5	6939.397	-5042.5
6939.398	-3752.5	6939.398	-12445	6939.398	-2267.5	6939.398	-5090
6939.399	-3755	6939.399	-12450	6939.399	-2252.5	6939.399	-5175
6939.4	-3932.5	6939.4	-12545	6939.4	-2275	6939.4	-5230
6939.401	-3965	6939.401	-12537.5	6939.401	-2267.5	6939.401	-5267.5
6939.402	-3947.5	6939.402	-12535	6939.402	-2285	6939.402	-5390
6939.403	-3907.5	6939.403	-12495	6939.403	-2262.5	6939.403	-5405
6939.404	-3955	6939.404	-12455	6939.404	-2265	6939.404	-5360
6939.405	-3770	6939.405	-12327.5	6939.405	-2210	6939.405	-5290
6939.406	-3757.5	6939.406	-12210	6939.406	-2252.5	6939.406	-5255
6939.407	-3632.5	6939.407	-12042.5	6939.407	-2167.5	6939.407	-5230
6939.408	-3437.5	6939.408	-11917.5	6939.408	-2145	6939.408	-5150
6939.409	-3312.5	6939.409	-11700	6939.409	-2142.5	6939.409	-5050
6939.41	-3200	6939.41	-11607.5	6939.41	-2065	6939.41	-4980
6939.411	-3087.5	6939.411	-11417.5	6939.411	-2130	6939.411	-4920
6939.412	-2982.5	6939.412	-11257.5	6939.412	-2040	6939.412	-4920
6939.413	-2972.5	6939.413	-11155	6939.413	-2052.5	6939.413	-4790
6939.414	-3010	6939.414	-11120	6939.414	-2025	6939.414	-4747.5
6939.415	-2995	6939.415	-10940	6939.415	-2062.5	6939.415	-4820
6939.416	-3097.5	6939.416	-10965	6939.416	-1980	6939.416	-4807.5
6939.417	-3117.5	6939.417	-10922.5	6939.417	-2055	6939.417	-4815
6939.418	-3230	6939.418	-10932.5	6939.418	-2100	6939.418	-4947.5
6939.419	-3307.5	6939.419	-10927.5	6939.419	-2092.5	6939.419	-5037.5
6939.42	-3345	6939.42	-10845	6939.42	-2117.5	6939.42	-5105
6939.421	-3492.5	6939.421	-10902.5	6939.421	-2132.5	6939.421	-5112.5
6939.422	-3512.5	6939.422	-10830	6939.422	-2095	6939.422	-5090
6939.423	-3490	6939.423	-10767.5	6939.423	-2080	6939.423	-5117.5
6939.424	-3422.5	6939.424	-10540	6939.424	-2035	6939.424	-5067.5
6939.425	-3372.5	6939.425	-10460	6939.425	-2050	6939.425	-5065
6939.426	-3267.5	6939.426	-10237.5	6939.426	-1990	6939.426	-5030
6939.427	-3107.5	6939.427	-10062.5	6939.427	-1965	6939.427	-4995
6939.428	-2930	6939.428	-9762.5	6939.428	-1925	6939.428	-4882.5
6939.429	-2930	6939.429	-9522.5	6939.429	-1900	6939.429	-4810
6939.43	-2767.5	6939.43	-9330	6939.43	-1847.5	6939.43	-4730
6939.431	-2677.5	6939.431	-9050	6939.431	-1742.5	6939.431	-4602.5
6939.432	-2550	6939.432	-8840	6939.432	-1745	6939.432	-4492.5
6939.433	-2540	6939.433	-8612.5	6939.433	-1727.5	6939.433	-4435
6939.434	-2445	6939.434	-8430	6939.434	-1665	6939.434	-4345
6939.435	-2405	6939.435	-8222.5	6939.435	-1652.5	6939.435	-4367.5
6939.436	-2522.5	6939.436	-8115	6939.436	-1710	6939.436	-4410
6939.437	-2597.5	6939.437	-7995	6939.437	-1712.5	6939.437	-4395
6939.438	-2757.5	6939.438	-7865	6939.438	-1710	6939.438	-4400
6939.439	-2837.5	6939.439	-7730	6939.439	-1645	6939.439	-4352.5
6939.44	-2890	6939.44	-7612.5	6939.44	-1705	6939.44	-4335
6939.441	-2935	6939.441	-7455	6939.441	-1702.5	6939.441	-4437.5
6939.442	-2962.5	6939.442	-7180	6939.442	-1655	6939.442	-4295
6939.443	-2950	6939.443	-6935	6939.443	-1662.5	6939.443	-4340
6939.444	-2940	6939.444	-6617.5	6939.444	-1652.5	6939.444	-4245
6939.445	-2885	6939.445	-6215	6939.445	-1590	6939.445	-4217.5
6939.446	-2807.5	6939.446	-5747.5	6939.446	-1550	6939.446	-4000
6939.447	-2642.5	6939.447	-5197.5	6939.447	-1527.5	6939.447	-3797.5
6939.448	-2525	6939.448	-4535	6939.448	-1480	6939.448	-3615
6939.449	-2442.5	6939.449	-3792.5	6939.449	-1392.5	6939.449	-3462.5
6939.45	-2385	6939.45	-3070	6939.45	-1335	6939.45	-3340
6939.451	-2212.5	6939.451	-2147.5	6939.451	-1285	6939.451	-3205
6939.452	-2165	6939.452	-1327.5	6939.452	-1315	6939.452	-2970
6939.453	-2097.5	6939.453	-387.5	6939.453	-1282.5	6939.453	-2792.5
6939.454	-2105	6939.454	460	6939.454	-1195	6939.454	-2700
6939.455	-2120	6939.455	1320	6939.455	-1237.5	6939.455	-2522.5
6939.456	-2200	6939.456	1997.5	6939.456	-1202.5	6939.456	-2460
6939.457	-2307.5	6939.457	2707.5	6939.457	-1182.5	6939.457	-2357.5
6939.458	-2270	6939.458	3432.5	6939.458	-1190	6939.458	-2285
6939.459	-2377.5	6939.459	4092.5	6939.459	-1290	6939.459	-2245
6939.46	-2537.5	6939.46	4757.5	6939.46	-1240	6939.46	-2152.5
6939.461	-2575	6939.461	5270	6939.461	-1325	6939.461	-2017.5
6939.462	-2595	6939.462	5827.5	6939.462	-1332.5	6939.462	-1897.5
6939.463	-2662.5	6939.463	6340	6939.463	-1360	6939.463	-1835
6939.464	-2567.5	6939.464	6782.5	6939.464	-1362.5	6939.464	-1762.5
6939.465	-2497.5	6939.465	7127.5	6939.465	-1375	6939.465	-1620
6939.466	-2327.5	6939.466	7495	6939.466	-1307.5	6939.466	-1462.5
6939.467	-2287.5	6939.467	7855	6939.467	-1315	6939.467	-1362.5
6939.468	-2115	6939.468	8162.5	6939.468	-1335	6939.468	-1145
6939.469	-2015	6939.469	8425	6939.469	-1352.5	6939.469	-932.5
6939.47	-1885	6939.47	8615	6939.47	-1385	6939.47	-820
6939.471	-1825	6939.471	8955	6939.471	-1400	6939.471	-682.5
6939.472	-1777.5	6939.472	9285	6939.472	-1427.5	6939.472	-517.5
6939.473	-1707.5	6939.473	9592.5	6939.473	-1430	6939.473	-390
6939.474	-1727.5	6939.474	9842.5	6939.474	-1455	6939.474	-265
6939.475	-1730	6939.475	10005	6939.475	-1530	6939.475	-125
6939.476	-1780	6939.476	10082.5	6939.476	-1542.5	6939.476	-97.5
6939.477	-1922.5	6939.477	10220	6939.477	-1590	6939.477	25
6939.478	-1970	6939.478	10205	6939.478	-1577.5	6939.478	165
6939.479	-2002.5	6939.479	10250	6939.479	-1645	6939.479	235
6939.48	-2067.5	6939.48	10272.5	6939.48	-1655	6939.48	312.5
6939.481	-2165	6939.481	10185	6939.481	-1710	6939.481	350
6939.482	-2100	6939.482	10135	6939.482	-1707.5	6939.482	510
6939.483	-2105	6939.483	10187.5	6939.483	-1760	6939.483	612.5
6939.484	-2097.5	6939.484	10147.5	6939.484	-1757.5	6939.484	732.5
6939.485	-2037.5	6939.485	10257.5	6939.485	-1770	6939.485	892.5
6939.486	-1820	6939.486	10392.5	6939.486	-1685	6939.486	985
6939.487	-1755	6939.487	10532.5	6939.487	-1682.5	6939.487	1065
6939.488	-1565	6939.488	10620	6939.488	-1690	6939.488	1200
6939.489	-1410	6939.489	10787.5	6939.489	-1627.5	6939.489	1332.5
6939.49	-1277.5	6939.49	10875	6939.49	-1627.5	6939.49	1502.5
6939.491	-1197.5	6939.491	10992.5	6939.491	-1585	6939.491	1590
6939.492	-1080	6939.492	11132.5	6939.492	-1555	6939.492	1805
6939.493	-1045	6939.493	11187.5	6939.493	-1542.5	6939.493	1937.5
6939.494	-1002.5	6939.494	11187.5	6939.494	-1560	6939.494	2097.5
6939.495	-962.5	6939.495	11145	6939.495	-1522.5	6939.495	2125
6939.496	-990	6939.496	11090	6939.496	-1560	6939.496	2285
6939.497	-995	6939.497	11065	6939.497	-1557.5	6939.497	2415
6939.498	-1150	6939.498	10922.5	6939.498	-1535	6939.498	2457.5
6939.499	-1107.5	6939.499	10842.5	6939.499	-1575	6939.499	2610
6939.5	-1210	6939.5	10712.5	6939.5	-1627.5	6939.5	2645
6939.501	-1202.5	6939.501	10655	6939.501	-1637.5	6939.501	2582.5
6939.502	-1112.5	6939.502	10562.5	6939.502	-1675	6939.502	2692.5
6939.503	-1162.5	6939.503	10485	6939.503	-1635	6939.503	2812.5
6939.504	-1030	6939.504	10400	6939.504	-1612.5	6939.504	2855
6939.505	-950	6939.505	10392.5	6939.505	-1650	6939.505	2930
6939.506	-812.5	6939.506	10387.5	6939.506	-1552.5	6939.506	3002.5
6939.507	-660	6939.507	10405	6939.507	-1510	6939.507	3100
6939.508	-427.5	6939.508	10410	6939.508	-1457.5	6939.508	3202.5
6939.509	-160	6939.509	10395	6939.509	-1435	6939.509	3240
6939.51	-37.5	6939.51	10292.5	6939.51	-1385	6939.51	3375
6939.511	182.5	6939.511	10435	6939.511	-1332.5	6939.511	3467.5
6939.512	292.5	6939.512	10375	6939.512	-1397.5	6939.512	3382.5
6939.513	432.5	6939.513	10370	6939.513	-1310	6939.513	3467.5
6939.514	505	6939.514	10337.5	6939.514	-1325	6939.514	3495
6939.515	510	6939.515	10250	6939.515	-1355	6939.515	3487.5
6939.516	477.5	6939.516	10142.5	6939.516	-1357.5	6939.516	3362.5
6939.517	520	6939.517	10030	6939.517	-1365	6939.517	3340
6939.518	455	6939.518	9790	6939.518	-1380	6939.518	3200
6939.519	432.5	6939.519	9660	6939.519	-1412.5	6939.519	3160
6939.52	355	6939.52	9507.5	6939.52	-1377.5	6939.52	3100
6939.521	270	6939.521	9300	6939.521	-1432.5	6939.521	2987.5
6939.522	275	6939.522	9267.5	6939.522	-1362.5	6939.522	2950
6939.523	270	6939.523	9125	6939.523	-1385	6939.523	2787.5
6939.524	297.5	6939.524	9080	6939.524	-1365	6939.524	2747.5
6939.525	307.5	6939.525	9037.5	6939.525	-1295	6939.525	2802.5
6939.526	517.5	6939.526	9057.5	6939.526	-1312.5	6939.526	2757.5
6939.527	737.5	6939.527	9037.5	6939.527	-1252.5	6939.527	2797.5
6939.528	892.5	6939.528	9102.5	6939.528	-1202.5	6939.528	2850
6939.529	990	6939.529	9077.5	6939.529	-1195	6939.529	2905
6939.53	1155	6939.53	9125	6939.53	-1092.5	6939.53	2925
6939.531	1300	6939.531	9110	6939.531	-1087.5	6939.531	2930
6939.532	1352.5	6939.532	9062.5	6939.532	-1085	6939.532	2930
6939.533	1430	6939.533	9022.5	6939.533	-1075	6939.533	2950
6939.534	1495	6939.534	9050	6939.534	-1085	6939.534	2985
6939.535	1460	6939.535	8957.5	6939.535	-1045	6939.535	2887.5
6939.536	1327.5	6939.536	8812.5	6939.536	-1057.5	6939.536	2765
6939.537	1315	6939.537	8697.5	6939.537	-1122.5	6939.537	2662.5
6939.538	1290	6939.538	8455	6939.538	-1102.5	6939.538	2580
6939.539	1110	6939.539	8327.5	6939.539	-1092.5	6939.539	2522.5
6939.54	1062.5	6939.54	8215	6939.54	-1125	6939.54	2422.5
6939.541	980	6939.541	8037.5	6939.541	-1122.5	6939.541	2335
6939.542	985	6939.542	7950	6939.542	-1132.5	6939.542	2290
6939.543	907.5	6939.543	7847.5	6939.543	-1135	6939.543	2237.5
6939.544	950	6939.544	7790	6939.544	-1127.5	6939.544	2235
6939.545	1020	6939.545	7760	6939.545	-1107.5	6939.545	2242.5
6939.546	1150	6939.546	7835	6939.546	-1005	6939.546	2247.5
6939.547	1255	6939.547	7772.5	6939.547	-1027.5	6939.547	2340
6939.548	1367.5	6939.548	7855	6939.548	-977.5	6939.548	2367.5
6939.549	1465	6939.549	7855	6939.549	-975	6939.549	2427.5
6939.55	1642.5	6939.55	7765	6939.55	-980	6939.55	2440
6939.551	1717.5	6939.551	7785	6939.551	-892.5	6939.551	2455
6939.552	1842.5	6939.552	7775	6939.552	-862.5	6939.552	2475
6939.553	1837.5	6939.553	7800	6939.553	-802.5	6939.553	2502.5
6939.554	1880	6939.554	7752.5	6939.554	-825	6939.554	2550
6939.555	1857.5	6939.555	7680	6939.555	-800	6939.555	2427.5
6939.556	1780	6939.556	7557.5	6939.556	-792.5	6939.556	2400
6939.557	1685	6939.557	7440	6939.557	-825	6939.557	2372.5
6939.558	1592.5	6939.558	7232.5	6939.558	-905	6939.558	2335
6939.559	1517.5	6939.559	7130	6939.559	-880	6939.559	2227.5
6939.56	1397.5	6939.56	6965	6939.56	-885	6939.56	2085
6939.561	1335	6939.561	6837.5	6939.561	-905	6939.561	2032.5
6939.562	1267.5	6939.562	6785	6939.562	-897.5	6939.562	1995
6939.563	1232.5	6939.563	6680	6939.563	-892.5	6939.563	1947.5
6939.564	1310	6939.564	6600	6939.564	-867.5	6939.564	1945
6939.565	1340	6939.565	6580	6939.565	-812.5	6939.565	1985
6939.566	1347.5	6939.566	6635	6939.566	-795	6939.566	2045
6939.567	1457.5	6939.567	6720	6939.567	-805	6939.567	2105
6939.568	1640	6939.568	6770	6939.568	-700	6939.568	2182.5
6939.569	1667.5	6939.569	6832.5	6939.569	-722.5	6939.569	2170
6939.57	1822.5	6939.57	6797.5	6939.57	-680	6939.57	2252.5
6939.571	1835	6939.571	6932.5	6939.571	-652.5	6939.571	2342.5
6939.572	1935	6939.572	6917.5	6939.572	-567.5	6939.572	2320
6939.573	2002.5	6939.573	6982.5	6939.573	-587.5	6939.573	2400
6939.574	2055	6939.574	7015	6939.574	-512.5	6939.574	2412.5
6939.575	2022.5	6939.575	6935	6939.575	-540	6939.575	2447.5
6939.576	1890	6939.576	6917.5	6939.576	-532.5	6939.576	2392.5
6939.577	1847.5	6939.577	6785	6939.577	-562.5	6939.577	2315
6939.578	1737.5	6939.578	6662.5	6939.578	-625	6939.578	2260
6939.579	1627.5	6939.579	6592.5	6939.579	-615	6939.579	2300
6939.58	1535	6939.58	6427.5	6939.58	-645	6939.58	2227.5
6939.581	1517.5	6939.581	6257.5	6939.581	-675	6939.581	2157.5
6939.582	1407.5	6939.582	6250	6939.582	-692.5	6939.582	2145
6939.583	1385	6939.583	6147.5	6939.583	-680	6939.583	2177.5
6939.584	1380	6939.584	6047.5	6939.584	-660	6939.584	2107.5
6939.585	1465	6939.585	6120	6939.585	-640	6939.585	2195
6939.586	1552.5	6939.586	6167.5	6939.586	-560	6939.586	2272.5
6939.587	1682.5	6939.587	6255	6939.587	-527.5	6939.587	2312.5
6939.588	1770	6939.588	6342.5	6939.588	-472.5	6939.588	2450
6939.589	1915	6939.589	6367.5	6939.589	-445	6939.589	2452.5
6939.59	2015	6939.59	6432.5	6939.59	-405	6939.59	2507.5
6939.591	2160	6939.591	6487.5	6939.591	-377.5	6939.591	2547.5
6939.592	2172.5	6939.592	6475	6939.592	-387.5	6939.592	2660
6939.593	2252.5	6939.593	6605	6939.593	-377.5	6939.593	2602.5
6939.594	2247.5	6939.594	6562.5	6939.594	-365	6939.594	2650
6939.595	2292.5	6939.595	6522.5	6939.595	-347.5	6939.595	2627.5
6939.596	2232.5	6939.596	6530	6939.596	-342.5	6939.596	2665
6939.597	2167.5	6939.597	6377.5	6939.597	-347.5	6939.597	2645
6939.598	2012.5	6939.598	6257.5	6939.598	-360	6939.598	2605
6939.599	1892.5	6939.599	6180	6939.599	-347.5	6939.599	2492.5
6939.6	1792.5	6939.6	6020	6939.6	-410	6939.6	2492.5
6939.601	1767.5	6939.601	5972.5	6939.601	-452.5	6939.601	2447.5
6939.602	1890	6939.602	6055	6939.602	-282.5	6939.602	2565
6939.603	2160	6939.603	6322.5	6939.603	2.5	6939.603	2792.5
6939.604	2732.5	6939.604	6965	6939.604	760	6939.604	3475
6939.605	3405	6939.605	7542.5	6939.605	1382.5	6939.605	4180
6939.606	4195	6939.606	8420	6939.606	2180	6939.606	5030
6939.607	4967.5	6939.607	9092.5	6939.607	2847.5	6939.607	5722.5
6939.608	5562.5	6939.608	9620	6939.608	3412.5	6939.608	6242.5
6939.609	6430	6939.609	10475	6939.609	4280	6939.609	7117.5
6939.61	5925	6939.61	9870	6939.61	3537.5	6939.61	6405
6939.611	5942.5	6939.611	9860	6939.611	3425	6939.611	6445
6939.612	6295	6939.612	10220	6939.612	3762.5	6939.612	6770
6939.613	5727.5	6939.613	9555	6939.613	3097.5	6939.613	6087.5
6939.614	5442.5	6939.614	9312.5	6939.614	2825	6939.614	5832.5
6939.615	4480	6939.615	8240	6939.615	1660	6939.615	4792.5
6939.616	3345	6939.616	7110	6939.616	570	6939.616	3802.5
6939.617	3180	6939.617	6957.5	6939.617	437.5	6939.617	3620
6939.618	2462.5	6939.618	6280	6939.618	-235	6939.618	2987.5
6939.619	1612.5	6939.619	5307.5	6939.619	-1197.5	6939.619	2117.5
6939.62	1267.5	6939.62	5020	6939.62	-1407.5	6939.62	1797.5
6939.621	662.5	6939.621	4357.5	6939.621	-1907.5	6939.621	1260
6939.622	-175	6939.622	3595	6939.622	-2770	6939.622	390
6939.623	-700	6939.623	2950	6939.623	-3280	6939.623	-145
6939.624	-792.5	6939.624	2912.5	6939.624	-3352.5	6939.624	-215
6939.625	-927.5	6939.625	2715	6939.625	-3497.5	6939.625	-380
6939.626	-367.5	6939.626	3115	6939.626	-3007.5	6939.626	160
6939.627	60	6939.627	3605	6939.627	-2582.5	6939.627	482.5
6939.628	252.5	6939.628	3695	6939.628	-2567.5	6939.628	605
6939.629	32.5	6939.629	3357.5	6939.629	-2902.5	6939.629	282.5
6939.63	-152.5	6939.63	3237.5	6939.63	-3080	6939.63	60
6939.631	-237.5	6939.631	3122.5	6939.631	-3345	6939.631	-47.5
6939.632	-342.5	6939.632	3070	6939.632	-3440	6939.632	-100
6939.633	-305	6939.633	3055	6939.633	-3482.5	6939.633	-220
6939.634	-187.5	6939.634	3077.5	6939.634	-3340	6939.634	-177.5
6939.635	-182.5	6939.635	3167.5	6939.635	-3245	6939.635	-65
6939.636	-145	6939.636	3150	6939.636	-3190	6939.636	-52.5
6939.637	-125	6939.637	3232.5	6939.637	-3100	6939.637	32.5
6939.638	-105	6939.638	3197.5	6939.638	-3027.5	6939.638	37.5
6939.639	-140	6939.639	3205	6939.639	-2940	6939.639	37.5
6939.64	-162.5	6939.64	3210	6939.64	-2875	6939.64	72.5
6939.641	-150	6939.641	3095	6939.641	-2805	6939.641	102.5
6939.642	-145	6939.642	3095	6939.642	-2727.5	6939.642	177.5
6939.643	-127.5	6939.643	3165	6939.643	-2612.5	6939.643	262.5
6939.644	52.5	6939.644	3165	6939.644	-2525	6939.644	315
6939.645	122.5	6939.645	3220	6939.645	-2392.5	6939.645	390
6939.646	392.5	6939.646	3387.5	6939.646	-2260	6939.646	525
6939.647	517.5	6939.647	3485	6939.647	-2230	6939.647	585
6939.648	712.5	6939.648	3647.5	6939.648	-2135	6939.648	725
6939.649	885	6939.649	3745	6939.649	-2080	6939.649	855
6939.65	1052.5	6939.65	3822.5	6939.65	-1975	6939.65	917.5
6939.651	1207.5	6939.651	3955	6939.651	-1855	6939.651	1077.5
6939.652	1222.5	6939.652	4050	6939.652	-1842.5	6939.652	1140
6939.653	1432.5	6939.653	4200	6939.653	-1767.5	6939.653	1202.5
6939.654	1470	6939.654	4272.5	6939.654	-1767.5	6939.654	1215
6939.655	1515	6939.655	4287.5	6939.655	-1682.5	6939.655	1230
6939.656	1442.5	6939.656	4217.5	6939.656	-1687.5	6939.656	1207.5
6939.657	1327.5	6939.657	4190	6939.657	-1645	6939.657	1200
6939.658	1245	6939.658	4105	6939.658	-1612.5	6939.658	1107.5
6939.659	1177.5	6939.659	3962.5	6939.659	-1580	6939.659	1072.5
6939.66	1165	6939.66	3917.5	6939.66	-1507.5	6939.66	1035
6939.661	1032.5	6939.661	3825	6939.661	-1567.5	6939.661	1005
6939.662	1040	6939.662	3722.5	6939.662	-1535	6939.662	960
6939.663	1020	6939.663	3712.5	6939.663	-1502.5	6939.663	1022.5
6939.664	1090	6939.664	3745	6939.664	-1475	6939.664	960
6939.665	1152.5	6939.665	3710	6939.665	-1400	6939.665	1012.5
6939.666	1277.5	6939.666	3797.5	6939.666	-1387.5	6939.666	1187.5
6939.667	1385	6939.667	3875	6939.667	-1332.5	6939.667	1200
6939.668	1525	6939.668	4010	6939.668	-1237.5	6939.668	1272.5
6939.669	1670	6939.669	4090	6939.669	-1180	6939.669	1355
6939.67	1877.5	6939.67	4172.5	6939.67	-1152.5	6939.67	1400
6939.671	1920	6939.671	4222.5	6939.671	-1070	6939.671	1457.5
6939.672	2037.5	6939.672	4345	6939.672	-1040	6939.672	1510
6939.673	2037.5	6939.673	4425	6939.673	-947.5	6939.673	1555
6939.674	2145	6939.674	4460	6939.674	-912.5	6939.674	1645
6939.675	2220	6939.675	4455	6939.675	-907.5	6939.675	1595
6939.676	2102.5	6939.676	4425	6939.676	-882.5	6939.676	1545
6939.677	1990	6939.677	4365	6939.677	-860	6939.677	1562.5
6939.678	1980	6939.678	4287.5	6939.678	-892.5	6939.678	1552.5
6939.679	1855	6939.679	4152.5	6939.679	-812.5	6939.679	1460
6939.68	1770	6939.68	4035	6939.68	-770	6939.68	1445
6939.681	1740	6939.681	4060	6939.681	-797.5	6939.681	1402.5
6939.682	1735	6939.682	3967.5	6939.682	-742.5	6939.682	1450
6939.683	1802.5	6939.683	3900	6939.683	-700	6939.683	1445
6939.684	1827.5	6939.684	3992.5	6939.684	-672.5	6939.684	1432.5
6939.685	1862.5	6939.685	4067.5	6939.685	-605	6939.685	1522.5
6939.686	1975	6939.686	4085	6939.686	-525	6939.686	1597.5
6939.687	2205	6939.687	4285	6939.687	-362.5	6939.687	1780
6939.688	2297.5	6939.688	4352.5	6939.688	-267.5	6939.688	1782.5
6939.689	2387.5	6939.689	4450	6939.689	-260	6939.689	1812.5
6939.69	2587.5	6939.69	4652.5	6939.69	-62.5	6939.69	2157.5
6939.691	3990	6939.691	5972.5	6939.691	1187.5	6939.691	3455
6939.692	5587.5	6939.692	7410	6939.692	2212.5	6939.692	4600
6939.693	8065	6939.693	9462.5	6939.693	3767.5	6939.693	6350
6939.694	9602.5	6939.694	10115	6939.694	3702.5	6939.694	6545
6939.695	12740	6939.695	13107.5	6939.695	6680	6939.695	9182.5
6939.696	16632.5	6939.696	17997.5	6939.696	12675	6939.696	13310
6939.697	21305	6939.697	24812.5	6939.697	22037.5	6939.697	19000
6939.698	27257.5	6939.698	32492.5	6939.698	33487.5	6939.698	25507.5
6939.699	30227.5	6939.699	36740	6939.699	41582.5	6939.699	28775
6939.7	34537.5	6939.7	42910	6939.7	47977.5	6939.7	33300
6939.701	41050	6939.701	49935	6939.701	51767.5	6939.701	41687.5
6939.702	29185	6939.702	36900	6939.702	50182.5	6939.702	37607.5
6939.703	-8227.5	6939.703	-9270	6939.703	-11840	6939.703	-3320
6939.704	-4252.5	6939.704	-4250	6939.704	-3510	6939.704	-8185
6939.705	-792.5	6939.705	-545	6939.705	-595	6939.705	-4412.5
6939.706	742.5	6939.706	1460	6939.706	470	6939.706	-1637.5
6939.707	1465	6939.707	2442.5	6939.707	1037.5	6939.707	-162.5
6939.708	2135	6939.708	3232.5	6939.708	1762.5	6939.708	812.5
6939.709	3367.5	6939.709	4422.5	6939.709	3145	6939.709	2257.5
6939.71	3675	6939.71	4690	6939.71	3597.5	6939.71	2740
6939.711	3195	6939.711	4035	6939.711	3082.5	6939.711	2220
6939.712	3135	6939.712	4160	6939.712	3580	6939.712	2310
6939.713	2720	6939.713	3825	6939.713	3600	6939.713	2035
6939.714	2082.5	6939.714	3197.5	6939.714	3320	6939.714	1325
6939.715	1490	6939.715	2612.5	6939.715	2982.5	6939.715	892.5
6939.716	1167.5	6939.716	2365	6939.716	3192.5	6939.716	747.5
6939.717	1220	6939.717	2467.5	6939.717	3740	6939.717	837.5
6939.718	1237.5	6939.718	2572.5	6939.718	4212.5	6939.718	960
6939.719	1332.5	6939.719	2735	6939.719	4782.5	6939.719	1062.5
6939.72	1610	6939.72	3070	6939.72	5380	6939.72	1232.5
6939.721	1872.5	6939.721	3512.5	6939.721	6017.5	6939.721	1592.5
6939.722	2255	6939.722	4115	6939.722	6692.5	6939.722	1937.5
6939.723	2815	6939.723	4840	6939.723	7392.5	6939.723	2372.5
6939.724	3335	6939.724	5667.5	6939.724	8005	6939.724	2870
6939.725	3952.5	6939.725	6527.5	6939.725	8562.5	6939.725	3347.5
6939.726	4660	6939.726	7390	6939.726	9010	6939.726	3902.5
6939.727	5240	6939.727	8177.5	6939.727	9500	6939.727	4522.5
6939.728	5982.5	6939.728	8862.5	6939.728	9800	6939.728	5070
6939.729	6597.5	6939.729	9492.5	6939.729	10087.5	6939.729	5655
6939.73	7037.5	6939.73	9897.5	6939.73	10260	6939.73	6165
6939.731	7390	6939.731	10267.5	6939.731	10377.5	6939.731	6642.5
6939.732	7700	6939.732	10397.5	6939.732	10380	6939.732	7072.5
6939.733	7832.5	6939.733	10377.5	6939.733	10280	6939.733	7280
6939.734	7805	6939.734	10127.5	6939.734	10132.5	6939.734	7455
6939.735	7740	6939.735	9915	6939.735	9900	6939.735	7605
6939.736	7470	6939.736	9495	6939.736	9622.5	6939.736	7512.5
6939.737	7247.5	6939.737	9085	6939.737	9297.5	6939.737	7310
6939.738	6820	6939.738	8667.5	6939.738	8947.5	6939.738	7172.5
6939.739	6382.5	6939.739	8217.5	6939.739	8630	6939.739	6990
6939.74	6065	6939.74	7800	6939.74	8297.5	6939.74	6697.5
6939.741	5567.5	6939.741	7297.5	6939.741	7937.5	6939.741	6272.5
6939.742	5147.5	6939.742	6835	6939.742	7555	6939.742	5882.5
6939.743	4857.5	6939.743	6460	6939.743	7235	6939.743	5580
6939.744	4505	6939.744	6057.5	6939.744	6885	6939.744	5192.5
6939.745	4120	6939.745	5672.5	6939.745	6460	6939.745	4832.5
6939.746	3860	6939.746	5422.5	6939.746	6230	6939.746	4565
6939.747	3542.5	6939.747	5120	6939.747	5902.5	6939.747	4250
6939.748	3327.5	6939.748	4945	6939.748	5602.5	6939.748	3980
6939.749	3042.5	6939.749	4690	6939.749	5297.5	6939.749	3640
6939.75	2842.5	6939.75	4577.5	6939.75	5035	6939.75	3345
6939.751	2660	6939.751	4397.5	6939.751	4775	6939.751	3097.5
6939.752	2355	6939.752	4227.5	6939.752	4520	6939.752	2860
6939.753	2122.5	6939.753	4077.5	6939.753	4232.5	6939.753	2592.5
6939.754	1802.5	6939.754	3752.5	6939.754	4010	6939.754	2262.5
6939.755	1600	6939.755	3355	6939.755	3732.5	6939.755	1997.5
6939.756	1130	6939.756	2930	6939.756	3467.5	6939.756	1550
6939.757	825	6939.757	2415	6939.757	3220	6939.757	1237.5
6939.758	505	6939.758	1850	6939.758	2997.5	6939.758	880
6939.759	245	6939.759	1272.5	6939.759	2815	6939.759	500
6939.76	-107.5	6939.76	732.5	6939.76	2610	6939.76	132.5
6939.761	-432.5	6939.761	172.5	6939.761	2422.5	6939.761	-187.5
6939.762	-620	6939.762	-420	6939.762	2202.5	6939.762	-477.5
6939.763	-842.5	6939.763	-990	6939.763	2082.5	6939.763	-725
6939.764	-985	6939.764	-1490	6939.764	1937.5	6939.764	-990
6939.765	-1177.5	6939.765	-1970	6939.765	1795	6939.765	-1185
6939.766	-1180	6939.766	-2407.5	6939.766	1740	6939.766	-1390
6939.767	-1180	6939.767	-2842.5	6939.767	1580	6939.767	-1527.5
6939.768	-1197.5	6939.768	-3237.5	6939.768	1510	6939.768	-1632.5
6939.769	-1177.5	6939.769	-3607.5	6939.769	1427.5	6939.769	-1745
6939.77	-1230	6939.77	-4007.5	6939.77	1365	6939.77	-1952.5
6939.771	-1332.5	6939.771	-4445	6939.771	1262.5	6939.771	-2077.5
6939.772	-1295	6939.772	-4847.5	6939.772	1135	6939.772	-2150
6939.773	-1410	6939.773	-5292.5	6939.773	1030	6939.773	-2247.5
6939.774	-1520	6939.774	-5727.5	6939.774	910	6939.774	-2407.5
6939.775	-1697.5	6939.775	-6310	6939.775	792.5	6939.775	-2557.5
6939.776	-1887.5	6939.776	-6905	6939.776	652.5	6939.776	-2775
6939.777	-2040	6939.777	-7435	6939.777	502.5	6939.777	-2892.5
6939.778	-2235	6939.778	-7982.5	6939.778	402.5	6939.778	-3015
6939.779	-2450	6939.779	-8547.5	6939.779	280	6939.779	-3200
6939.78	-2667.5	6939.78	-9022.5	6939.78	132.5	6939.78	-3402.5
6939.781	-2887.5	6939.781	-9497.5	6939.781	12.5	6939.781	-3582.5
6939.782	-3062.5	6939.782	-10017.5	6939.782	-62.5	6939.782	-3710
6939.783	-3147.5	6939.783	-10412.5	6939.783	-100	6939.783	-3785
6939.784	-3240	6939.784	-10852.5	6939.784	-212.5	6939.784	-3887.5
6939.785	-3357.5	6939.785	-11147.5	6939.785	-352.5	6939.785	-3972.5
6939.786	-3360	6939.786	-11440	6939.786	-372.5	6939.786	-4012.5
6939.787	-3335	6939.787	-11637.5	6939.787	-392.5	6939.787	-3990
6939.788	-3280	6939.788	-11927.5	6939.788	-422.5	6939.788	-3992.5
6939.789	-3280	6939.789	-12097.5	6939.789	-497.5	6939.789	-4037.5
6939.79	-3260	6939.79	-12355	6939.79	-545	6939.79	-4007.5
6939.791	-3262.5	6939.791	-12475	6939.791	-572.5	6939.791	-3982.5
6939.792	-3255	6939.792	-12727.5	6939.792	-687.5	6939.792	-4012.5
6939.793	-3365	6939.793	-12987.5	6939.793	-697.5	6939.793	-4040
6939.794	-3405	6939.794	-13212.5	6939.794	-770	6939.794	-4040
6939.795	-3585	6939.795	-13455	6939.795	-935	6939.795	-4205
6939.796	-3682.5	6939.796	-13742.5	6939.796	-1005	6939.796	-4237.5
6939.797	-3820	6939.797	-13980	6939.797	-1157.5	6939.797	-4277.5
6939.798	-4087.5	6939.798	-14242.5	6939.798	-1205	6939.798	-4415
6939.799	-4250	6939.799	-14535	6939.799	-1282.5	6939.799	-4465
6939.8	-4347.5	6939.8	-14765	6939.8	-1420	6939.8	-4575
6939.801	-4530	6939.801	-14970	6939.801	-1452.5	6939.801	-4642.5
6939.802	-4652.5	6939.802	-15155	6939.802	-1527.5	6939.802	-4630
6939.803	-4755	6939.803	-15365	6939.803	-1635	6939.803	-4685
6939.804	-4855	6939.804	-15467.5	6939.804	-1670	6939.804	-4697.5
6939.805	-4770	6939.805	-15572.5	6939.805	-1737.5	6939.805	-4717.5
6939.806	-4767.5	6939.806	-15582.5	6939.806	-1760	6939.806	-4642.5
6939.807	-4742.5	6939.807	-15605	6939.807	-1820	6939.807	-4667.5
6939.808	-4727.5	6939.808	-15562.5	6939.808	-1882.5	6939.808	-4575
6939.809	-4660	6939.809	-15592.5	6939.809	-1905	6939.809	-4572.5
6939.81	-4635	6939.81	-15517.5	6939.81	-1932.5	6939.81	-4475
6939.811	-4505	6939.811	-15565	6939.811	-1932.5	6939.811	-4417.5
6939.812	-4455	6939.812	-15575	6939.812	-2012.5	6939.812	-4360
6939.813	-4495	6939.813	-15590	6939.813	-2025	6939.813	-4322.5
6939.814	-4460	6939.814	-15575	6939.814	-2105	6939.814	-4245
6939.815	-4562.5	6939.815	-15647.5	6939.815	-2112.5	6939.815	-4297.5
6939.816	-4720	6939.816	-15767.5	6939.816	-2172.5	6939.816	-4277.5
6939.817	-4770	6939.817	-15850	6939.817	-2262.5	6939.817	-4322.5
6939.818	-4855	6939.818	-15912.5	6939.818	-2352.5	6939.818	-4355
6939.819	-5062.5	6939.819	-16085	6939.819	-2345	6939.819	-4450
6939.82	-5160	6939.82	-16107.5	6939.82	-2415	6939.82	-4442.5
6939.821	-5272.5	6939.821	-16247.5	6939.821	-2487.5	6939.821	-4537.5
6939.822	-5317.5	6939.822	-16292.5	6939.822	-2557.5	6939.822	-4572.5
6939.823	-5337.5	6939.823	-16275	6939.823	-2550	6939.823	-4570
6939.824	-5390	6939.824	-16207.5	6939.824	-2557.5	6939.824	-4545
6939.825	-5297.5	6939.825	-16267.5	6939.825	-2565	6939.825	-4612.5
6939.826	-5207.5	6939.826	-16160	6939.826	-2575	6939.826	-4485
6939.827	-5137.5	6939.827	-16045	6939.827	-2585	6939.827	-4382.5
6939.828	-5015	6939.828	-15917.5	6939.828	-2507.5	6939.828	-4362.5
6939.829	-4942.5	6939.829	-15760	6939.829	-2502.5	6939.829	-4250
6939.83	-4860	6939.83	-15685	6939.83	-2517.5	6939.83	-4225
6939.831	-4765	6939.831	-15515	6939.831	-2517.5	6939.831	-4140
6939.832	-4712.5	6939.832	-15412.5	6939.832	-2512.5	6939.832	-4057.5
6939.833	-4692.5	6939.833	-15355	6939.833	-2470	6939.833	-4025
6939.834	-4612.5	6939.834	-15180	6939.834	-2445	6939.834	-4005
6939.835	-4600	6939.835	-15262.5	6939.835	-2502.5	6939.835	-4050
6939.836	-4792.5	6939.836	-15247.5	6939.836	-2547.5	6939.836	-4130
6939.837	-4780	6939.837	-15200	6939.837	-2535	6939.837	-4162.5
6939.838	-4875	6939.838	-15310	6939.838	-2590	6939.838	-4240
6939.839	-5042.5	6939.839	-15390	6939.839	-2607.5	6939.839	-4327.5
6939.84	-5002.5	6939.84	-15390	6939.84	-2612.5	6939.84	-4452.5
6939.841	-5180	6939.841	-15370	6939.841	-2667.5	6939.841	-4542.5
6939.842	-5190	6939.842	-15437.5	6939.842	-2625	6939.842	-4610
6939.843	-5250	6939.843	-15375	6939.843	-2625	6939.843	-4685
6939.844	-5222.5	6939.844	-15340	6939.844	-2637.5	6939.844	-4690
6939.845	-5130	6939.845	-15327.5	6939.845	-2605	6939.845	-4727.5
6939.846	-5152.5	6939.846	-15180	6939.846	-2572.5	6939.846	-4732.5
6939.847	-4937.5	6939.847	-15055	6939.847	-2557.5	6939.847	-4685
6939.848	-4792.5	6939.848	-14942.5	6939.848	-2520	6939.848	-4677.5
6939.849	-4572.5	6939.849	-14812.5	6939.849	-2417.5	6939.849	-4630
6939.85	-4552.5	6939.85	-14630	6939.85	-2457.5	6939.85	-4645
6939.851	-4377.5	6939.851	-14487.5	6939.851	-2435	6939.851	-4542.5
6939.852	-4312.5	6939.852	-14387.5	6939.852	-2415	6939.852	-4565
6939.853	-4235	6939.853	-14285	6939.853	-2390	6939.853	-4545
6939.854	-4160	6939.854	-14167.5	6939.854	-2340	6939.854	-4625
6939.855	-4195	6939.855	-14082.5	6939.855	-2352.5	6939.855	-4630
6939.856	-4240	6939.856	-14182.5	6939.856	-2322.5	6939.856	-4565
6939.857	-4247.5	6939.857	-14215	6939.857	-2360	6939.857	-4677.5
6939.858	-4355	6939.858	-14175	6939.858	-2297.5	6939.858	-4712.5
6939.859	-4390	6939.859	-14257.5	6939.859	-2317.5	6939.859	-4822.5
6939.86	-4440	6939.86	-14305	6939.86	-2347.5	6939.86	-4897.5
6939.861	-4600	6939.861	-14317.5	6939.861	-2347.5	6939.861	-4995
6939.862	-4567.5	6939.862	-14332.5	6939.862	-2347.5	6939.862	-5047.5
6939.863	-4647.5	6939.863	-14352.5	6939.863	-2390	6939.863	-5075
6939.864	-4567.5	6939.864	-14260	6939.864	-2365	6939.864	-5095
6939.865	-4415	6939.865	-14232.5	6939.865	-2292.5	6939.865	-5102.5
6939.866	-4252.5	6939.866	-14087.5	6939.866	-2225	6939.866	-5070
6939.867	-4120	6939.867	-13952.5	6939.867	-2257.5	6939.867	-5007.5
6939.868	-3952.5	6939.868	-13802.5	6939.868	-2170	6939.868	-4957.5
6939.869	-3840	6939.869	-13632.5	6939.869	-2102.5	6939.869	-4975
6939.87	-3710	6939.87	-13555	6939.87	-2080	6939.87	-4947.5
6939.871	-3530	6939.871	-13407.5	6939.871	-2050	6939.871	-4865
6939.872	-3417.5	6939.872	-13350	6939.872	-2005	6939.872	-4862.5
6939.873	-3405	6939.873	-13222.5	6939.873	-1987.5	6939.873	-4875
6939.874	-3252.5	6939.874	-13090	6939.874	-1985	6939.874	-4802.5
6939.875	-3295	6939.875	-12982.5	6939.875	-2015	6939.875	-4777.5
6939.876	-3305	6939.876	-13037.5	6939.876	-2000	6939.876	-4880
6939.877	-3402.5	6939.877	-13075	6939.877	-2000	6939.877	-4872.5
6939.878	-3490	6939.878	-13105	6939.878	-2025	6939.878	-4927.5
6939.879	-3585	6939.879	-13140	6939.879	-2027.5	6939.879	-5060
6939.88	-3585	6939.88	-13147.5	6939.88	-2045	6939.88	-5062.5
6939.881	-3647.5	6939.881	-13205	6939.881	-2097.5	6939.881	-5080
6939.882	-3752.5	6939.882	-13207.5	6939.882	-2085	6939.882	-5145
6939.883	-3667.5	6939.883	-13145	6939.883	-2052.5	6939.883	-5145
6939.884	-3612.5	6939.884	-13122.5	6939.884	-2020	6939.884	-5170
6939.885	-3562.5	6939.885	-13050	6939.885	-2010	6939.885	-5105
6939.886	-3447.5	6939.886	-12907.5	6939.886	-1982.5	6939.886	-5110
6939.887	-3285	6939.887	-12750	6939.887	-1917.5	6939.887	-5017.5
6939.888	-3102.5	6939.888	-12547.5	6939.888	-1860	6939.888	-4947.5
6939.889	-3022.5	6939.889	-12377.5	6939.889	-1880	6939.889	-4920
6939.89	-2870	6939.89	-12272.5	6939.89	-1807.5	6939.89	-4897.5
6939.891	-2727.5	6939.891	-12050	6939.891	-1785	6939.891	-4815
6939.892	-2625	6939.892	-11892.5	6939.892	-1750	6939.892	-4740
6939.893	-2592.5	6939.893	-11800	6939.893	-1717.5	6939.893	-4757.5
6939.894	-2550	6939.894	-11692.5	6939.894	-1710	6939.894	-4685
6939.895	-2595	6939.895	-11577.5	6939.895	-1670	6939.895	-4727.5
6939.896	-2680	6939.896	-11557.5	6939.896	-1695	6939.896	-4687.5
6939.897	-2810	6939.897	-11520	6939.897	-1735	6939.897	-4787.5
6939.898	-2830	6939.898	-11522.5	6939.898	-1715	6939.898	-4807.5
6939.899	-2920	6939.899	-11580	6939.899	-1745	6939.899	-4805
6939.9	-2995	6939.9	-11497.5	6939.9	-1737.5	6939.9	-4785
6939.901	-2952.5	6939.901	-11502.5	6939.901	-1730	6939.901	-4880
6939.902	-3010	6939.902	-11415	6939.902	-1742.5	6939.902	-4875
6939.903	-3105	6939.903	-11360	6939.903	-1730	6939.903	-4910
6939.904	-3127.5	6939.904	-11295	6939.904	-1672.5	6939.904	-4867.5
6939.905	-2947.5	6939.905	-11132.5	6939.905	-1680	6939.905	-4810
6939.906	-2772.5	6939.906	-10942.5	6939.906	-1577.5	6939.906	-4802.5
6939.907	-2682.5	6939.907	-10785	6939.907	-1577.5	6939.907	-4800
6939.908	-2537.5	6939.908	-10532.5	6939.908	-1507.5	6939.908	-4752.5
6939.909	-2417.5	6939.909	-10325	6939.909	-1502.5	6939.909	-4577.5
6939.91	-2337.5	6939.91	-10115	6939.91	-1445	6939.91	-4527.5
6939.911	-2172.5	6939.911	-9870	6939.911	-1382.5	6939.911	-4455
6939.912	-2050	6939.912	-9652.5	6939.912	-1340	6939.912	-4397.5
6939.913	-2112.5	6939.913	-9512.5	6939.913	-1337.5	6939.913	-4370
6939.914	-2042.5	6939.914	-9357.5	6939.914	-1340	6939.914	-4335
6939.915	-2042.5	6939.915	-9237.5	6939.915	-1337.5	6939.915	-4317.5
6939.916	-2100	6939.916	-9150	6939.916	-1392.5	6939.916	-4247.5
6939.917	-2135	6939.917	-9040	6939.917	-1312.5	6939.917	-4285
6939.918	-2190	6939.918	-8937.5	6939.918	-1357.5	6939.918	-4250
6939.919	-2265	6939.919	-8872.5	6939.919	-1342.5	6939.919	-4340
6939.92	-2350	6939.92	-8715	6939.92	-1317.5	6939.92	-4340
6939.921	-2477.5	6939.921	-8697.5	6939.921	-1370	6939.921	-4337.5
6939.922	-2515	6939.922	-8512.5	6939.922	-1322.5	6939.922	-4385
6939.923	-2525	6939.923	-8307.5	6939.923	-1305	6939.923	-4297.5
6939.924	-2515	6939.924	-8117.5	6939.924	-1302.5	6939.924	-4245
6939.925	-2372.5	6939.925	-7870	6939.925	-1275	6939.925	-4195
6939.926	-2275	6939.926	-7505	6939.926	-1200	6939.926	-4110
6939.927	-2185	6939.927	-7120	6939.927	-1175	6939.927	-4005
6939.928	-1997.5	6939.928	-6687.5	6939.928	-1135	6939.928	-3895
6939.929	-1867.5	6939.929	-6237.5	6939.929	-1075	6939.929	-3710
6939.93	-1732.5	6939.93	-5842.5	6939.93	-1090	6939.93	-3652.5
6939.931	-1582.5	6939.931	-5257.5	6939.931	-1012.5	6939.931	-3457.5
6939.932	-1480	6939.932	-4752.5	6939.932	-1032.5	6939.932	-3372.5
6939.933	-1410	6939.933	-4162.5	6939.933	-1015	6939.933	-3275
6939.934	-1342.5	6939.934	-3612.5	6939.934	-1002.5	6939.934	-3150
6939.935	-1415	6939.935	-3012.5	6939.935	-975	6939.935	-3067.5
6939.936	-1492.5	6939.936	-2395	6939.936	-1047.5	6939.936	-3045
6939.937	-1460	6939.937	-1740	6939.937	-1002.5	6939.937	-2897.5
6939.938	-1605	6939.938	-1075	6939.938	-1035	6939.938	-2912.5
6939.939	-1775	6939.939	-280	6939.939	-1057.5	6939.939	-2875
6939.94	-1855	6939.94	457.5	6939.94	-1095	6939.94	-2747.5
6939.941	-1890	6939.941	1270	6939.941	-1095	6939.941	-2740
6939.942	-1930	6939.942	1997.5	6939.942	-1140	6939.942	-2640
6939.943	-1890	6939.943	2857.5	6939.943	-1137.5	6939.943	-2645
6939.944	-1890	6939.944	3607.5	6939.944	-1122.5	6939.944	-2467.5
6939.945	-1892.5	6939.945	4267.5	6939.945	-1120	6939.945	-2340
6939.946	-1807.5	6939.946	5010	6939.946	-1100	6939.946	-2132.5
6939.947	-1675	6939.947	5640	6939.947	-1035	6939.947	-1960
6939.948	-1462.5	6939.948	6112.5	6939.948	-987.5	6939.948	-1785
6939.949	-1380	6939.949	6532.5	6939.949	-970	6939.949	-1590
6939.95	-1287.5	6939.95	6880	6939.95	-1045	6939.95	-1492.5
6939.951	-1127.5	6939.951	7277.5	6939.951	-1005	6939.951	-1315
6939.952	-1082.5	6939.952	7515	6939.952	-1020	6939.952	-1150
6939.953	-995	6939.953	7777.5	6939.953	-992.5	6939.953	-982.5
6939.954	-957.5	6939.954	7915	6939.954	-972.5	6939.954	-855
6939.955	-930	6939.955	8057.5	6939.955	-987.5	6939.955	-795
6939.956	-1002.5	6939.956	8122.5	6939.956	-1065	6939.956	-700
6939.957	-1082.5	6939.957	8255	6939.957	-1070	6939.957	-675
6939.958	-1232.5	6939.958	8332.5	6939.958	-1107.5	6939.958	-622.5
6939.959	-1337.5	6939.959	8400	6939.959	-1192.5	6939.959	-557.5
6939.96	-1300	6939.96	8500	6939.96	-1135	6939.96	-495
6939.961	-1450	6939.961	8602.5	6939.961	-1252.5	6939.961	-450
6939.962	-1480	6939.962	8682.5	6939.962	-1275	6939.962	-370
6939.963	-1502.5	6939.963	8847.5	6939.963	-1305	6939.963	-190
6939.964	-1427.5	6939.964	8942.5	6939.964	-1302.5	6939.964	-40
6939.965	-1482.5	6939.965	9037.5	6939.965	-1302.5	6939.965	135
6939.966	-1332.5	6939.966	9242.5	6939.966	-1262.5	6939.966	327.5
6939.967	-1192.5	6939.967	9357.5	6939.967	-1220	6939.967	555
6939.968	-1015	6939.968	9577.5	6939.968	-1182.5	6939.968	795
6939.969	-877.5	6939.969	9750	6939.969	-1150	6939.969	972.5
6939.97	-755	6939.97	9950	6939.97	-1072.5	6939.97	1095
6939.971	-640	6939.971	10115	6939.971	-1067.5	6939.971	1295
6939.972	-535	6939.972	10225	6939.972	-1037.5	6939.972	1347.5
6939.973	-422.5	6939.973	10452.5	6939.973	-1025	6939.973	1487.5
6939.974	-350	6939.974	10630	6939.974	-1020	6939.974	1577.5
6939.975	-367.5	6939.975	10842.5	6939.975	-1007.5	6939.975	1692.5
6939.976	-532.5	6939.976	10942.5	6939.976	-1057.5	6939.976	1852.5
6939.977	-505	6939.977	10965	6939.977	-1082.5	6939.977	1972.5
6939.978	-520	6939.978	11060	6939.978	-1087.5	6939.978	2097.5
6939.979	-640	6939.979	11010	6939.979	-1100	6939.979	2152.5
6939.98	-752.5	6939.98	11062.5	6939.98	-1107.5	6939.98	2230
6939.981	-810	6939.981	11025	6939.981	-1142.5	6939.981	2365
6939.982	-772.5	6939.982	11075	6939.982	-1162.5	6939.982	2445
6939.983	-725	6939.983	11110	6939.983	-1100	6939.983	2547.5
6939.984	-705	6939.984	11130	6939.984	-1140	6939.984	2757.5
6939.985	-652.5	6939.985	11242.5	6939.985	-1120	6939.985	2867.5
6939.986	-490	6939.986	11327.5	6939.986	-1035	6939.986	2970
6939.987	-287.5	6939.987	11417.5	6939.987	-1035	6939.987	3142.5
6939.988	-125	6939.988	11497.5	6939.988	-1045	6939.988	3337.5
6939.989	-27.5	6939.989	11652.5	6939.989	-985	6939.989	3420
6939.99	130	6939.99	11657.5	6939.99	-967.5	6939.99	3587.5
6939.991	270	6939.991	11647.5	6939.991	-872.5	6939.991	3717.5
6939.992	387.5	6939.992	11665	6939.992	-882.5	6939.992	3795
6939.993	517.5	6939.993	11650	6939.993	-902.5	6939.993	3862.5
6939.994	667.5	6939.994	11707.5	6939.994	-885	6939.994	3922.5
6939.995	667.5	6939.995	11625	6939.995	-845	6939.995	3905
6939.996	652.5	6939.996	11522.5	6939.996	-795	6939.996	3905
6939.997	652.5	6939.997	11372.5	6939.997	-880	6939.997	3862.5
6939.998	612.5	6939.998	11147.5	6939.998	-867.5	6939.998	3845
6939.999	555	6939.999	11027.5	6939.999	-860	6939.999	3787.5
6940	600	6940	10797.5	6940	-975	6940	3767.5
6940.001	575	6940.001	10670	6940.001	-947.5	6940.001	3647.5
6940.002	527.5	6940.002	10482.5	6940.002	-940	6940.002	3675
6940.003	555	6940.003	10447.5	6940.003	-945	6940.003	3690
6940.004	610	6940.004	10307.5	6940.004	-917.5	6940.004	3667.5
6940.005	745	6940.005	10300	6940.005	-930	6940.005	3700
6940.006	897.5	6940.006	10312.5	6940.006	-862.5	6940.006	3710
6940.007	1020	6940.007	10255	6940.007	-812.5	6940.007	3750
6940.008	1212.5	6940.008	10287.5	6940.008	-752.5	6940.008	3807.5
6940.009	1365	6940.009	10300	6940.009	-725	6940.009	3795
6940.01	1492.5	6940.01	10297.5	6940.01	-712.5	6940.01	3832.5
6940.011	1607.5	6940.011	10312.5	6940.011	-595	6940.011	3880
6940.012	1780	6940.012	10330	6940.012	-600	6940.012	3877.5
6940.013	1840	6940.013	10295	6940.013	-587.5	6940.013	3892.5
6940.014	1877.5	6940.014	10167.5	6940.014	-595	6940.014	3875
6940.015	1895	6940.015	10132.5	6940.015	-577.5	6940.015	3815
6940.016	1782.5	6940.016	9960	6940.016	-577.5	6940.016	3722.5
6940.017	1790	6940.017	9835	6940.017	-615	6940.017	3662.5
6940.018	1825	6940.018	9720	6940.018	-642.5	6940.018	3592.5
6940.019	1780	6940.019	9560	6940.019	-667.5	6940.019	3565
6940.02	1785	6940.02	9402.5	6940.02	-637.5	6940.02	3442.5
