A1(X)	A1(Y)	A2(X)	A2(Y)	A3(X)	A3(Y)	B2(X)	B2(Y)	B3(X)	B3(Y)
6938.063	-6845	6938.063	-6980	6938.063	-4762.5	6938.063	-4380	6938.063	-3685
6938.064	-6705	6938.064	-6972.5	6938.064	-4702.5	6938.064	-4185	6938.064	-3632.5
6938.065	-6572.5	6938.065	-6777.5	6938.065	-4647.5	6938.065	-4135	6938.065	-3525
6938.066	-6407.5	6938.066	-6605	6938.066	-4570	6938.066	-4060	6938.066	-3450
6938.067	-6305	6938.067	-6422.5	6938.067	-4472.5	6938.067	-3922.5	6938.067	-3360
6938.068	-6090	6938.068	-6247.5	6938.068	-4430	6938.068	-3805	6938.068	-3352.5
6938.069	-6080	6938.069	-6145	6938.069	-4345	6938.069	-3715	6938.069	-3240
6938.07	-6020	6938.07	-6010	6938.07	-4297.5	6938.07	-3720	6938.07	-3185
6938.071	-5830	6938.071	-5982.5	6938.071	-4265	6938.071	-3655	6938.071	-3140
6938.072	-5815	6938.072	-5855	6938.072	-4197.5	6938.072	-3592.5	6938.072	-3020
6938.073	-5752.5	6938.073	-5745	6938.073	-4120	6938.073	-3515	6938.073	-3012.5
6938.074	-5767.5	6938.074	-5740	6938.074	-4082.5	6938.074	-3497.5	6938.074	-2950
6938.075	-5682.5	6938.075	-5722.5	6938.075	-4037.5	6938.075	-3515	6938.075	-2970
6938.076	-5645	6938.076	-5717.5	6938.076	-4010	6938.076	-3502.5	6938.076	-2922.5
6938.077	-5725	6938.077	-5795	6938.077	-4005	6938.077	-3567.5	6938.077	-2925
6938.078	-5745	6938.078	-5842.5	6938.078	-3955	6938.078	-3510	6938.078	-2865
6938.079	-5722.5	6938.079	-5760	6938.079	-3882.5	6938.079	-3560	6938.079	-2765
6938.08	-5655	6938.08	-5800	6938.08	-3870	6938.08	-3575	6938.08	-2800
6938.081	-5632.5	6938.081	-5805	6938.081	-3850	6938.081	-3560	6938.081	-2760
6938.082	-5660	6938.082	-5800	6938.082	-3762.5	6938.082	-3502.5	6938.082	-2712.5
6938.083	-5522.5	6938.083	-5715	6938.083	-3727.5	6938.083	-3477.5	6938.083	-2660
6938.084	-5547.5	6938.084	-5612.5	6938.084	-3665	6938.084	-3415	6938.084	-2635
6938.085	-5337.5	6938.085	-5500	6938.085	-3620	6938.085	-3340	6938.085	-2567.5
6938.086	-5155	6938.086	-5415	6938.086	-3530	6938.086	-3280	6938.086	-2475
6938.087	-4950	6938.087	-5247.5	6938.087	-3440	6938.087	-3185	6938.087	-2397.5
6938.088	-4982.5	6938.088	-5047.5	6938.088	-3375	6938.088	-3050	6938.088	-2362.5
6938.089	-4790	6938.089	-4957.5	6938.089	-3292.5	6938.089	-3047.5	6938.089	-2292.5
6938.09	-4647.5	6938.09	-4732.5	6938.09	-3257.5	6938.09	-2935	6938.09	-2242.5
6938.091	-4580	6938.091	-4665	6938.091	-3200	6938.091	-2827.5	6938.091	-2187.5
6938.092	-4557.5	6938.092	-4502.5	6938.092	-3102.5	6938.092	-2700	6938.092	-2132.5
6938.093	-4417.5	6938.093	-4390	6938.093	-3015	6938.093	-2662.5	6938.093	-2040
6938.094	-4370	6938.094	-4347.5	6938.094	-3020	6938.094	-2662.5	6938.094	-2017.5
6938.095	-4497.5	6938.095	-4377.5	6938.095	-2992.5	6938.095	-2732.5	6938.095	-2010
6938.096	-4327.5	6938.096	-4360	6938.096	-2932.5	6938.096	-2642.5	6938.096	-1980
6938.097	-4362.5	6938.097	-4435	6938.097	-2880	6938.097	-2637.5	6938.097	-1965
6938.098	-4282.5	6938.098	-4470	6938.098	-2837.5	6938.098	-2682.5	6938.098	-1900
6938.099	-4262.5	6938.099	-4490	6938.099	-2790	6938.099	-2642.5	6938.099	-1840
6938.1	-4252.5	6938.1	-4457.5	6938.1	-2737.5	6938.1	-2655	6938.1	-1820
6938.101	-4215	6938.101	-4417.5	6938.101	-2630	6938.101	-2587.5	6938.101	-1737.5
6938.102	-4220	6938.102	-4382.5	6938.102	-2595	6938.102	-2535	6938.102	-1700
6938.103	-4067.5	6938.103	-4390	6938.103	-2525	6938.103	-2490	6938.103	-1670
6938.104	-4172.5	6938.104	-4292.5	6938.104	-2472.5	6938.104	-2457.5	6938.104	-1600
6938.105	-4137.5	6938.105	-4347.5	6938.105	-2542.5	6938.105	-2520	6938.105	-1645
6938.106	-4425	6938.106	-4582.5	6938.106	-2620	6938.106	-2622.5	6938.106	-1695
6938.107	-4465	6938.107	-4497.5	6938.107	-2510	6938.107	-2410	6938.107	-1505
6938.108	-3005	6938.108	-3127.5	6938.108	-967.5	6938.108	-747.5	6938.108	115
6938.109	-1090	6938.109	-1297.5	6938.109	757.5	6938.109	1290	6938.109	1835
6938.11	1865	6938.11	1462.5	6938.11	2540	6938.11	3662.5	6938.11	3445
6938.111	5245	6938.111	4592.5	6938.111	4787.5	6938.111	6577.5	6938.111	5522.5
6938.112	11145	6938.112	10282.5	6938.112	10445	6938.112	12330	6938.112	11050
6938.113	17427.5	6938.113	16415	6938.113	17790	6938.113	18917.5	6938.113	18515
6938.114	28145	6938.114	27222.5	6938.114	30847.5	6938.114	30257.5	6938.114	31772.5
6938.115	37430	6938.115	37062.5	6938.115	42547.5	6938.115	40317.5	6938.115	43657.5
6938.116	44500	6938.116	44885	6938.116	50935	6938.116	47437.5	6938.116	52055
6938.117	49755	6938.117	51127.5	6938.117	58202.5	6938.117	54045	6938.117	59435
6938.118	54317.5	6938.118	57547.5	6938.118	67537.5	6938.118	60612.5	6938.118	68970
6938.119	56637.5	6938.119	61670	6938.119	70855	6938.119	57702.5	6938.119	72325
6938.12	55742.5	6938.12	61025	6938.12	34657.5	6938.12	39952.5	6938.12	29377.5
6938.121	52790	6938.121	57982.5	6938.121	27697.5	6938.121	39487.5	6938.121	20987.5
6938.122	43552.5	6938.122	44992.5	6938.122	18300	6938.122	28235	6938.122	13345
6938.123	26222.5	6938.123	18907.5	6938.123	3022.5	6938.123	7467.5	6938.123	367.5
6938.124	11177.5	6938.124	8390	6938.124	2117.5	6938.124	3910	6938.124	230
6938.125	8415	6938.125	6812.5	6938.125	2595	6938.125	4125	6938.125	1135
6938.126	8310	6938.126	7145	6938.126	3707.5	6938.126	4630	6938.126	2470
6938.127	7257.5	6938.127	6130	6938.127	3157.5	6938.127	3892.5	6938.127	2177.5
6938.128	7527.5	6938.128	7057.5	6938.128	4415	6938.128	4267.5	6938.128	3342.5
6938.129	8182.5	6938.129	8235	6938.129	5495	6938.129	4912.5	6938.129	4322.5
6938.13	9037.5	6938.13	9500	6938.13	6535	6938.13	5622.5	6938.13	5245
6938.131	9297.5	6938.131	9702.5	6938.131	6512.5	6938.131	5555	6938.131	5142.5
6938.132	9985	6938.132	10322.5	6938.132	6782.5	6938.132	5970	6938.132	5350
6938.133	10982.5	6938.133	11397.5	6938.133	7690	6938.133	6862.5	6938.133	6195
6938.134	12367.5	6938.134	12800	6938.134	8790	6938.134	8035	6938.134	7207.5
6938.135	13775	6938.135	13990	6938.135	9812.5	6938.135	9217.5	6938.135	8172.5
6938.136	14970	6938.136	15252.5	6938.136	10890	6938.136	10577.5	6938.136	9217.5
6938.137	16200	6938.137	16517.5	6938.137	12075	6938.137	12072.5	6938.137	10350
6938.138	17392.5	6938.138	17695	6938.138	13245	6938.138	13495	6938.138	11525
6938.139	18390	6938.139	18895	6938.139	14387.5	6938.139	14867.5	6938.139	12592.5
6938.14	19322.5	6938.14	19792.5	6938.14	15495	6938.14	16167.5	6938.14	13677.5
6938.141	19997.5	6938.141	20550	6938.141	16415	6938.141	17210	6938.141	14610
6938.142	20445	6938.142	21160	6938.142	17182.5	6938.142	18142.5	6938.142	15450
6938.143	20852.5	6938.143	21515	6938.143	17812.5	6938.143	18825	6938.143	16117.5
6938.144	21147.5	6938.144	21805	6938.144	18287.5	6938.144	19400	6938.144	16590
6938.145	21270	6938.145	22037.5	6938.145	18607.5	6938.145	19832.5	6938.145	16982.5
6938.146	21385	6938.146	22115	6938.146	18777.5	6938.146	20107.5	6938.146	17200
6938.147	21402.5	6938.147	22165	6938.147	18845	6938.147	20315	6938.147	17315
6938.148	21280	6938.148	22160	6938.148	18770	6938.148	20260	6938.148	17317.5
6938.149	21005	6938.149	21945	6938.149	18697.5	6938.149	20155	6938.149	17232.5
6938.15	20730	6938.15	21775	6938.15	18475	6938.15	19962.5	6938.15	17067.5
6938.151	20462.5	6938.151	21412.5	6938.151	18187.5	6938.151	19635	6938.151	16805
6938.152	20035	6938.152	21105	6938.152	17885	6938.152	19355	6938.152	16555
6938.153	19647.5	6938.153	20657.5	6938.153	17507.5	6938.153	18955	6938.153	16210
6938.154	19175	6938.154	20140	6938.154	17112.5	6938.154	18517.5	6938.154	15822.5
6938.155	18720	6938.155	19620	6938.155	16655	6938.155	18010	6938.155	15407.5
6938.156	18155	6938.156	19017.5	6938.156	16230	6938.156	17495	6938.156	15037.5
6938.157	17580	6938.157	18422.5	6938.157	15715	6938.157	16880	6938.157	14532.5
6938.158	16957.5	6938.158	17665	6938.158	15277.5	6938.158	16285	6938.158	14112.5
6938.159	16317.5	6938.159	17120	6938.159	14762.5	6938.159	15740	6938.159	13622.5
6938.16	15785	6938.16	16490	6938.16	14315	6938.16	15207.5	6938.16	13180
6938.161	15247.5	6938.161	15850	6938.161	13827.5	6938.161	14577.5	6938.161	12727.5
6938.162	14622.5	6938.162	15250	6938.162	13337.5	6938.162	14037.5	6938.162	12270
6938.163	14117.5	6938.163	14715	6938.163	12895	6938.163	13555	6938.163	11847.5
6938.164	13635	6938.164	14187.5	6938.164	12427.5	6938.164	13075	6938.164	11422.5
6938.165	13222.5	6938.165	13772.5	6938.165	12017.5	6938.165	12630	6938.165	11035
6938.166	12712.5	6938.166	13320	6938.166	11552.5	6938.166	12145	6938.166	10595
6938.167	12350	6938.167	12925	6938.167	11187.5	6938.167	11770	6938.167	10255
6938.168	11872.5	6938.168	12512.5	6938.168	10787.5	6938.168	11290	6938.168	9892.5
6938.169	11572.5	6938.169	12097.5	6938.169	10370	6938.169	10880	6938.169	9510
6938.17	11175	6938.17	11745	6938.17	10012.5	6938.17	10445	6938.17	9165
6938.171	10837.5	6938.171	11385	6938.171	9645	6938.171	10115	6938.171	8815
6938.172	10395	6938.172	10982.5	6938.172	9300	6938.172	9727.5	6938.172	8507.5
6938.173	9912.5	6938.173	10575	6938.173	8987.5	6938.173	9332.5	6938.173	8245
6938.174	9545	6938.174	10182.5	6938.174	8597.5	6938.174	8887.5	6938.174	7880
6938.175	8995	6938.175	9577.5	6938.175	8227.5	6938.175	8457.5	6938.175	7502.5
6938.176	8597.5	6938.176	9132.5	6938.176	7882.5	6938.176	8045	6938.176	7205
6938.177	8137.5	6938.177	8687.5	6938.177	7562.5	6938.177	7705	6938.177	6897.5
6938.178	7755	6938.178	8242.5	6938.178	7270	6938.178	7362.5	6938.178	6622.5
6938.179	7415	6938.179	7745	6938.179	6940	6938.179	6935	6938.179	6295
6938.18	6977.5	6938.18	7285	6938.18	6655	6938.18	6455	6938.18	6032.5
6938.181	6615	6938.181	6815	6938.181	6372.5	6938.181	6032.5	6938.181	5800
6938.182	6285	6938.182	6462.5	6938.182	6110	6938.182	5697.5	6938.182	5547.5
6938.183	5960	6938.183	6057.5	6938.183	5790	6938.183	5265	6938.183	5305
6938.184	5777.5	6938.184	5760	6938.184	5522.5	6938.184	4865	6938.184	5015
6938.185	5387.5	6938.185	5537.5	6938.185	5317.5	6938.185	4522.5	6938.185	4845
6938.186	5192.5	6938.186	5232.5	6938.186	5027.5	6938.186	4105	6938.186	4602.5
6938.187	4927.5	6938.187	5032.5	6938.187	4815	6938.187	3765	6938.187	4400
6938.188	4672.5	6938.188	4745	6938.188	4542.5	6938.188	3382.5	6938.188	4142.5
6938.189	4350	6938.189	4552.5	6938.189	4312.5	6938.189	2902.5	6938.189	3937.5
6938.19	4145	6938.19	4325	6938.19	4067.5	6938.19	2525	6938.19	3765
6938.191	3882.5	6938.191	4027.5	6938.191	3820	6938.191	2025	6938.191	3560
6938.192	3595	6938.192	3670	6938.192	3582.5	6938.192	1602.5	6938.192	3332.5
6938.193	3307.5	6938.193	3495	6938.193	3312.5	6938.193	1107.5	6938.193	3127.5
6938.194	2920	6938.194	3085	6938.194	3035	6938.194	697.5	6938.194	2865
6938.195	2562.5	6938.195	2712.5	6938.195	2827.5	6938.195	170	6938.195	2657.5
6938.196	2297.5	6938.196	2380	6938.196	2557.5	6938.196	-275	6938.196	2385
6938.197	1855	6938.197	1940	6938.197	2300	6938.197	-760	6938.197	2160
6938.198	1632.5	6938.198	1490	6938.198	2015	6938.198	-1212.5	6938.198	1840
6938.199	1245	6938.199	1147.5	6938.199	1775	6938.199	-1687.5	6938.199	1675
6938.2	810	6938.2	742.5	6938.2	1512.5	6938.2	-2120	6938.2	1397.5
6938.201	610	6938.201	380	6938.201	1225	6938.201	-2500	6938.201	1170
6938.202	360	6938.202	60	6938.202	985	6938.202	-2895	6938.202	915
6938.203	-10	6938.203	-245	6938.203	762.5	6938.203	-3240	6938.203	730
6938.204	-267.5	6938.204	-512.5	6938.204	515	6938.204	-3590	6938.204	477.5
6938.205	-460	6938.205	-690	6938.205	305	6938.205	-3900	6938.205	280
6938.206	-717.5	6938.206	-955	6938.206	70	6938.206	-4165	6938.206	87.5
6938.207	-920	6938.207	-1107.5	6938.207	-152.5	6938.207	-4497.5	6938.207	-75
6938.208	-1130	6938.208	-1357.5	6938.208	-407.5	6938.208	-4712.5	6938.208	-342.5
6938.209	-1395	6938.209	-1505	6938.209	-595	6938.209	-4915	6938.209	-525
6938.21	-1627.5	6938.21	-1742.5	6938.21	-837.5	6938.21	-5192.5	6938.21	-737.5
6938.211	-1812.5	6938.211	-1915	6938.211	-1065	6938.211	-5425	6938.211	-975
6938.212	-2025	6938.212	-2132.5	6938.212	-1255	6938.212	-5692.5	6938.212	-1135
6938.213	-2240	6938.213	-2312.5	6938.213	-1512.5	6938.213	-5925	6938.213	-1317.5
6938.214	-2582.5	6938.214	-2627.5	6938.214	-1732.5	6938.214	-6192.5	6938.214	-1587.5
6938.215	-2907.5	6938.215	-2992.5	6938.215	-1952.5	6938.215	-6477.5	6938.215	-1785
6938.216	-3217.5	6938.216	-3245	6938.216	-2192.5	6938.216	-6807.5	6938.216	-1987.5
6938.217	-3385	6938.217	-3585	6938.217	-2392.5	6938.217	-7007.5	6938.217	-2195
6938.218	-3650	6938.218	-3902.5	6938.218	-2600	6938.218	-7252.5	6938.218	-2412.5
6938.219	-3897.5	6938.219	-4237.5	6938.219	-2795	6938.219	-7522.5	6938.219	-2587.5
6938.22	-4175	6938.22	-4547.5	6938.22	-2995	6938.22	-7740	6938.22	-2770
6938.221	-4410	6938.221	-4795	6938.221	-3187.5	6938.221	-8000	6938.221	-2962.5
6938.222	-4655	6938.222	-5055	6938.222	-3330	6938.222	-8182.5	6938.222	-3147.5
6938.223	-4842.5	6938.223	-5290	6938.223	-3510	6938.223	-8362.5	6938.223	-3302.5
6938.224	-5040	6938.224	-5477.5	6938.224	-3682.5	6938.224	-8535	6938.224	-3420
6938.225	-5082.5	6938.225	-5520	6938.225	-3860	6938.225	-8640	6938.225	-3592.5
6938.226	-5245	6938.226	-5712.5	6938.226	-3987.5	6938.226	-8777.5	6938.226	-3707.5
6938.227	-5292.5	6938.227	-5735	6938.227	-4097.5	6938.227	-8795	6938.227	-3825
6938.228	-5450	6938.228	-5835	6938.228	-4220	6938.228	-8875	6938.228	-3895
6938.229	-5565	6938.229	-5922.5	6938.229	-4377.5	6938.229	-9012.5	6938.229	-4057.5
6938.23	-5590	6938.23	-5947.5	6938.23	-4480	6938.23	-9095	6938.23	-4115
6938.231	-5717.5	6938.231	-5987.5	6938.231	-4610	6938.231	-9132.5	6938.231	-4197.5
6938.232	-5772.5	6938.232	-6155	6938.232	-4707.5	6938.232	-9245	6938.232	-4317.5
6938.233	-5880	6938.233	-6300	6938.233	-4812.5	6938.233	-9280	6938.233	-4382.5
6938.234	-6070	6938.234	-6412.5	6938.234	-4957.5	6938.234	-9332.5	6938.234	-4497.5
6938.235	-6287.5	6938.235	-6600	6938.235	-5072.5	6938.235	-9420	6938.235	-4675
6938.236	-6407.5	6938.236	-6772.5	6938.236	-5160	6938.236	-9562.5	6938.236	-4740
6938.237	-6597.5	6938.237	-7050	6938.237	-5277.5	6938.237	-9715	6938.237	-4847.5
6938.238	-6692.5	6938.238	-7272.5	6938.238	-5337.5	6938.238	-9790	6938.238	-4925
6938.239	-6907.5	6938.239	-7430	6938.239	-5457.5	6938.239	-9870	6938.239	-5012.5
6938.24	-7072.5	6938.24	-7612.5	6938.24	-5542.5	6938.24	-9985	6938.24	-5085
6938.241	-7042.5	6938.241	-7770	6938.241	-5617.5	6938.241	-10040	6938.241	-5167.5
6938.242	-7222.5	6938.242	-7842.5	6938.242	-5695	6938.242	-10080	6938.242	-5197.5
6938.243	-7237.5	6938.243	-7965	6938.243	-5750	6938.243	-10127.5	6938.243	-5232.5
6938.244	-7350	6938.244	-7987.5	6938.244	-5785	6938.244	-10112.5	6938.244	-5255
6938.245	-7320	6938.245	-7975	6938.245	-5802.5	6938.245	-10052.5	6938.245	-5325
6938.246	-7297.5	6938.246	-7907.5	6938.246	-5845	6938.246	-10025	6938.246	-5327.5
6938.247	-7220	6938.247	-7865	6938.247	-5872.5	6938.247	-9972.5	6938.247	-5295
6938.248	-7270	6938.248	-7835	6938.248	-5905	6938.248	-9942.5	6938.248	-5325
6938.249	-7227.5	6938.249	-7875	6938.249	-5945	6938.249	-9837.5	6938.249	-5355
6938.25	-7132.5	6938.25	-7805	6938.25	-5965	6938.25	-9800	6938.25	-5375
6938.251	-7195	6938.251	-7742.5	6938.251	-6005	6938.251	-9762.5	6938.251	-5407.5
6938.252	-7322.5	6938.252	-7835	6938.252	-6020	6938.252	-9770	6938.252	-5377.5
6938.253	-7242.5	6938.253	-7815	6938.253	-6047.5	6938.253	-9732.5	6938.253	-5415
6938.254	-7282.5	6938.254	-7782.5	6938.254	-6097.5	6938.254	-9717.5	6938.254	-5445
6938.255	-7485	6938.255	-7980	6938.255	-6080	6938.255	-9672.5	6938.255	-5462.5
6938.256	-7465	6938.256	-8022.5	6938.256	-6097.5	6938.256	-9670	6938.256	-5470
6938.257	-7517.5	6938.257	-8130	6938.257	-6110	6938.257	-9685	6938.257	-5477.5
6938.258	-7620	6938.258	-8250	6938.258	-6125	6938.258	-9707.5	6938.258	-5520
6938.259	-7587.5	6938.259	-8425	6938.259	-6177.5	6938.259	-9787.5	6938.259	-5522.5
6938.26	-7660	6938.26	-8472.5	6938.26	-6142.5	6938.26	-9787.5	6938.26	-5512.5
6938.261	-7790	6938.261	-8570	6938.261	-6172.5	6938.261	-9752.5	6938.261	-5510
6938.262	-7692.5	6938.262	-8650	6938.262	-6207.5	6938.262	-9762.5	6938.262	-5542.5
6938.263	-7725	6938.263	-8630	6938.263	-6172.5	6938.263	-9677.5	6938.263	-5485
6938.264	-7702.5	6938.264	-8660	6938.264	-6155	6938.264	-9637.5	6938.264	-5462.5
6938.265	-7615	6938.265	-8537.5	6938.265	-6167.5	6938.265	-9522.5	6938.265	-5455
6938.266	-7640	6938.266	-8535	6938.266	-6135	6938.266	-9442.5	6938.266	-5405
6938.267	-7555	6938.267	-8435	6938.267	-6120	6938.267	-9367.5	6938.267	-5387.5
6938.268	-7532.5	6938.268	-8267.5	6938.268	-6097.5	6938.268	-9240	6938.268	-5362.5
6938.269	-7435	6938.269	-8230	6938.269	-6107.5	6938.269	-9132.5	6938.269	-5360
6938.27	-7385	6938.27	-8157.5	6938.27	-6065	6938.27	-9030	6938.27	-5297.5
6938.271	-7350	6938.271	-8052.5	6938.271	-6055	6938.271	-8985	6938.271	-5250
6938.272	-7235	6938.272	-8022.5	6938.272	-6040	6938.272	-8867.5	6938.272	-5250
6938.273	-7302.5	6938.273	-8030	6938.273	-6070	6938.273	-8842.5	6938.273	-5270
6938.274	-7350	6938.274	-8052.5	6938.274	-6012.5	6938.274	-8820	6938.274	-5195
6938.275	-7407.5	6938.275	-8080	6938.275	-6002.5	6938.275	-8795	6938.275	-5210
6938.276	-7325	6938.276	-8130	6938.276	-5952.5	6938.276	-8772.5	6938.276	-5140
6938.277	-7450	6938.277	-8210	6938.277	-6032.5	6938.277	-8775	6938.277	-5225
6938.278	-7442.5	6938.278	-8340	6938.278	-6015	6938.278	-8792.5	6938.278	-5165
6938.279	-7517.5	6938.279	-8390	6938.279	-6012.5	6938.279	-8742.5	6938.279	-5225
6938.28	-7480	6938.28	-8410	6938.28	-5960	6938.28	-8772.5	6938.28	-5135
6938.281	-7482.5	6938.281	-8515	6938.281	-5945	6938.281	-8700	6938.281	-5115
6938.282	-7442.5	6938.282	-8477.5	6938.282	-5912.5	6938.282	-8642.5	6938.282	-5080
6938.283	-7487.5	6938.283	-8472.5	6938.283	-5882.5	6938.283	-8572.5	6938.283	-5052.5
6938.284	-7485	6938.284	-8362.5	6938.284	-5897.5	6938.284	-8477.5	6938.284	-5035
6938.285	-7357.5	6938.285	-8340	6938.285	-5815	6938.285	-8400	6938.285	-4960
6938.286	-7280	6938.286	-8232.5	6938.286	-5765	6938.286	-8275	6938.286	-4935
6938.287	-7147.5	6938.287	-8075	6938.287	-5742.5	6938.287	-8167.5	6938.287	-4887.5
6938.288	-7067.5	6938.288	-7972.5	6938.288	-5707.5	6938.288	-8062.5	6938.288	-4870
6938.289	-7025	6938.289	-7880	6938.289	-5702.5	6938.289	-7957.5	6938.289	-4822.5
6938.29	-6950	6938.29	-7757.5	6938.29	-5655	6938.29	-7822.5	6938.29	-4755
6938.291	-6945	6938.291	-7667.5	6938.291	-5655	6938.291	-7730	6938.291	-4770
6938.292	-6912.5	6938.292	-7650	6938.292	-5607.5	6938.292	-7640	6938.292	-4672.5
6938.293	-6880	6938.293	-7622.5	6938.293	-5605	6938.293	-7565	6938.293	-4670
6938.294	-6865	6938.294	-7607.5	6938.294	-5575	6938.294	-7480	6938.294	-4640
6938.295	-6812.5	6938.295	-7607.5	6938.295	-5567.5	6938.295	-7475	6938.295	-4700
6938.296	-6835	6938.296	-7630	6938.296	-5547.5	6938.296	-7475	6938.296	-4592.5
6938.297	-6855	6938.297	-7752.5	6938.297	-5545	6938.297	-7420	6938.297	-4617.5
6938.298	-6955	6938.298	-7832.5	6938.298	-5545	6938.298	-7365	6938.298	-4630
6938.299	-6965	6938.299	-7917.5	6938.299	-5480	6938.299	-7325	6938.299	-4597.5
6938.3	-6917.5	6938.3	-7925	6938.3	-5515	6938.3	-7297.5	6938.3	-4585
6938.301	-6930	6938.301	-8065	6938.301	-5475	6938.301	-7245	6938.301	-4597.5
6938.302	-6912.5	6938.302	-7995	6938.302	-5417.5	6938.302	-7190	6938.302	-4510
6938.303	-6977.5	6938.303	-7995	6938.303	-5415	6938.303	-7102.5	6938.303	-4500
6938.304	-6887.5	6938.304	-7937.5	6938.304	-5365	6938.304	-6980	6938.304	-4417.5
6938.305	-6815	6938.305	-7880	6938.305	-5365	6938.305	-6892.5	6938.305	-4435
6938.306	-6725	6938.306	-7790	6938.306	-5332.5	6938.306	-6762.5	6938.306	-4405
6938.307	-6605	6938.307	-7667.5	6938.307	-5297.5	6938.307	-6610	6938.307	-4342.5
6938.308	-6512.5	6938.308	-7527.5	6938.308	-5240	6938.308	-6532.5	6938.308	-4260
6938.309	-6445	6938.309	-7452.5	6938.309	-5205	6938.309	-6410	6938.309	-4250
6938.31	-6465	6938.31	-7317.5	6938.31	-5175	6938.31	-6305	6938.31	-4210
6938.311	-6337.5	6938.311	-7177.5	6938.311	-5170	6938.311	-6152.5	6938.311	-4167.5
6938.312	-6357.5	6938.312	-7167.5	6938.312	-5130	6938.312	-6020	6938.312	-4142.5
6938.313	-6267.5	6938.313	-7112.5	6938.313	-5120	6938.313	-5937.5	6938.313	-4147.5
6938.314	-6280	6938.314	-7055	6938.314	-5130	6938.314	-5895	6938.314	-4072.5
6938.315	-6395	6938.315	-7075	6938.315	-5112.5	6938.315	-5825	6938.315	-4090
6938.316	-6395	6938.316	-7152.5	6938.316	-5105	6938.316	-5847.5	6938.316	-4082.5
6938.317	-6382.5	6938.317	-7180	6938.317	-5080	6938.317	-5852.5	6938.317	-4085
6938.318	-6540	6938.318	-7385	6938.318	-5060	6938.318	-5830	6938.318	-4065
6938.319	-6432.5	6938.319	-7377.5	6938.319	-5022.5	6938.319	-5782.5	6938.319	-4012.5
6938.32	-6575	6938.32	-7550	6938.32	-5007.5	6938.32	-5810	6938.32	-4020
6938.321	-6510	6938.321	-7502.5	6938.321	-5022.5	6938.321	-5782.5	6938.321	-4035
6938.322	-6510	6938.322	-7465	6938.322	-4965	6938.322	-5647.5	6938.322	-3980
6938.323	-6455	6938.323	-7517.5	6938.323	-4925	6938.323	-5637.5	6938.323	-3915
6938.324	-6317.5	6938.324	-7475	6938.324	-4935	6938.324	-5565	6938.324	-3917.5
6938.325	-6317.5	6938.325	-7327.5	6938.325	-4877.5	6938.325	-5525	6938.325	-3897.5
6938.326	-6280	6938.326	-7300	6938.326	-4835	6938.326	-5407.5	6938.326	-3820
6938.327	-6205	6938.327	-7132.5	6938.327	-4802.5	6938.327	-5395	6938.327	-3730
6938.328	-6077.5	6938.328	-6985	6938.328	-4762.5	6938.328	-5270	6938.328	-3732.5
6938.329	-6062.5	6938.329	-6940	6938.329	-4712.5	6938.329	-5157.5	6938.329	-3645
6938.33	-5962.5	6938.33	-6797.5	6938.33	-4652.5	6938.33	-5057.5	6938.33	-3585
6938.331	-5857.5	6938.331	-6690	6938.331	-4620	6938.331	-4957.5	6938.331	-3562.5
6938.332	-5805	6938.332	-6622.5	6938.332	-4615	6938.332	-4870	6938.332	-3522.5
6938.333	-5810	6938.333	-6515	6938.333	-4600	6938.333	-4827.5	6938.333	-3505
6938.334	-5760	6938.334	-6535	6938.334	-4557.5	6938.334	-4740	6938.334	-3502.5
6938.335	-5882.5	6938.335	-6575	6938.335	-4585	6938.335	-4720	6938.335	-3540
6938.336	-5887.5	6938.336	-6575	6938.336	-4522.5	6938.336	-4677.5	6938.336	-3422.5
6938.337	-5885	6938.337	-6645	6938.337	-4492.5	6938.337	-4632.5	6938.337	-3405
6938.338	-5962.5	6938.338	-6740	6938.338	-4480	6938.338	-4645	6938.338	-3445
6938.339	-5907.5	6938.339	-6792.5	6938.339	-4435	6938.339	-4600	6938.339	-3412.5
6938.34	-5975	6938.34	-6830	6938.34	-4437.5	6938.34	-4600	6938.34	-3420
6938.341	-6027.5	6938.341	-6820	6938.341	-4442.5	6938.341	-4505	6938.341	-3370
6938.342	-5975	6938.342	-6850	6938.342	-4397.5	6938.342	-4465	6938.342	-3327.5
6938.343	-5887.5	6938.343	-6817.5	6938.343	-4320	6938.343	-4402.5	6938.343	-3300
6938.344	-5907.5	6938.344	-6755	6938.344	-4290	6938.344	-4305	6938.344	-3247.5
6938.345	-5845	6938.345	-6592.5	6938.345	-4255	6938.345	-4150	6938.345	-3205
6938.346	-5812.5	6938.346	-6537.5	6938.346	-4217.5	6938.346	-4022.5	6938.346	-3180
6938.347	-5670	6938.347	-6420	6938.347	-4142.5	6938.347	-3902.5	6938.347	-3102.5
6938.348	-5585	6938.348	-6320	6938.348	-4122.5	6938.348	-3765	6938.348	-3032.5
6938.349	-5455	6938.349	-6195	6938.349	-4055	6938.349	-3675	6938.349	-3007.5
6938.35	-5400	6938.35	-6020	6938.35	-4027.5	6938.35	-3557.5	6938.35	-2927.5
6938.351	-5355	6938.351	-5922.5	6938.351	-4007.5	6938.351	-3455	6938.351	-2892.5
6938.352	-5317.5	6938.352	-5872.5	6938.352	-3945	6938.352	-3357.5	6938.352	-2837.5
6938.353	-5272.5	6938.353	-5840	6938.353	-3912.5	6938.353	-3242.5	6938.353	-2822.5
6938.354	-5260	6938.354	-5780	6938.354	-3885	6938.354	-3087.5	6938.354	-2787.5
6938.355	-5277.5	6938.355	-5805	6938.355	-3885	6938.355	-3070	6938.355	-2790
6938.356	-5380	6938.356	-5837.5	6938.356	-3910	6938.356	-3005	6938.356	-2832.5
6938.357	-5387.5	6938.357	-5880	6938.357	-3852.5	6938.357	-2952.5	6938.357	-2777.5
6938.358	-5462.5	6938.358	-5927.5	6938.358	-3847.5	6938.358	-2922.5	6938.358	-2742.5
6938.359	-5465	6938.359	-5980	6938.359	-3837.5	6938.359	-2832.5	6938.359	-2710
6938.36	-5535	6938.36	-6092.5	6938.36	-3827.5	6938.36	-2765	6938.36	-2732.5
6938.361	-5455	6938.361	-6100	6938.361	-3797.5	6938.361	-2677.5	6938.361	-2687.5
6938.362	-5387.5	6938.362	-6040	6938.362	-3742.5	6938.362	-2572.5	6938.362	-2655
6938.363	-5387.5	6938.363	-6097.5	6938.363	-3750	6938.363	-2490	6938.363	-2660
6938.364	-5320	6938.364	-5975	6938.364	-3715	6938.364	-2430	6938.364	-2632.5
6938.365	-5305	6938.365	-5872.5	6938.365	-3655	6938.365	-2220	6938.365	-2580
6938.366	-5202.5	6938.366	-5757.5	6938.366	-3632.5	6938.366	-2090	6938.366	-2555
6938.367	-5030	6938.367	-5620	6938.367	-3567.5	6938.367	-1945	6938.367	-2507.5
6938.368	-4952.5	6938.368	-5417.5	6938.368	-3505	6938.368	-1780	6938.368	-2430
6938.369	-4977.5	6938.369	-5365	6938.369	-3502.5	6938.369	-1637.5	6938.369	-2430
6938.37	-4847.5	6938.37	-5257.5	6938.37	-3485	6938.37	-1512.5	6938.37	-2420
6938.371	-4777.5	6938.371	-5067.5	6938.371	-3480	6938.371	-1367.5	6938.371	-2382.5
6938.372	-4730	6938.372	-5057.5	6938.372	-3452.5	6938.372	-1255	6938.372	-2370
6938.373	-4735	6938.373	-4935	6938.373	-3452.5	6938.373	-1190	6938.373	-2337.5
6938.374	-4665	6938.374	-4950	6938.374	-3427.5	6938.374	-1047.5	6938.374	-2370
6938.375	-4707.5	6938.375	-4957.5	6938.375	-3397.5	6938.375	-1035	6938.375	-2327.5
6938.376	-4715	6938.376	-5040	6938.376	-3385	6938.376	-952.5	6938.376	-2350
6938.377	-4825	6938.377	-5117.5	6938.377	-3390	6938.377	-895	6938.377	-2337.5
6938.378	-4867.5	6938.378	-5152.5	6938.378	-3402.5	6938.378	-817.5	6938.378	-2372.5
6938.379	-4830	6938.379	-5267.5	6938.379	-3357.5	6938.379	-847.5	6938.379	-2295
6938.38	-4885	6938.38	-5272.5	6938.38	-3365	6938.38	-772.5	6938.38	-2332.5
6938.381	-4857.5	6938.381	-5355	6938.381	-3357.5	6938.381	-757.5	6938.381	-2302.5
6938.382	-4727.5	6938.382	-5307.5	6938.382	-3272.5	6938.382	-612.5	6938.382	-2297.5
6938.383	-4812.5	6938.383	-5327.5	6938.383	-3310	6938.383	-700	6938.383	-2282.5
6938.384	-4790	6938.384	-5257.5	6938.384	-3285	6938.384	-580	6938.384	-2225
6938.385	-4742.5	6938.385	-5115	6938.385	-3247.5	6938.385	-477.5	6938.385	-2237.5
6938.386	-4635	6938.386	-4977.5	6938.386	-3205	6938.386	-345	6938.386	-2242.5
6938.387	-4515	6938.387	-4907.5	6938.387	-3142.5	6938.387	-210	6938.387	-2180
6938.388	-4467.5	6938.388	-4777.5	6938.388	-3132.5	6938.388	-127.5	6938.388	-2142.5
6938.389	-4407.5	6938.389	-4725	6938.389	-3125	6938.389	-52.5	6938.389	-2130
6938.39	-4340	6938.39	-4582.5	6938.39	-3067.5	6938.39	17.5	6938.39	-2065
6938.391	-4307.5	6938.391	-4435	6938.391	-3052.5	6938.391	120	6938.391	-2022.5
6938.392	-4167.5	6938.392	-4405	6938.392	-3020	6938.392	180	6938.392	-2050
6938.393	-4120	6938.393	-4310	6938.393	-3012.5	6938.393	235	6938.393	-2012.5
6938.394	-4127.5	6938.394	-4272.5	6938.394	-3022.5	6938.394	212.5	6938.394	-2077.5
6938.395	-4170	6938.395	-4280	6938.395	-3002.5	6938.395	227.5	6938.395	-2042.5
6938.396	-4195	6938.396	-4322.5	6938.396	-2972.5	6938.396	252.5	6938.396	-2022.5
6938.397	-4175	6938.397	-4355	6938.397	-2990	6938.397	222.5	6938.397	-2035
6938.398	-4210	6938.398	-4435	6938.398	-2920	6938.398	200	6938.398	-2057.5
6938.399	-4322.5	6938.399	-4497.5	6938.399	-2940	6938.399	185	6938.399	-2040
6938.4	-4252.5	6938.4	-4615	6938.4	-2910	6938.4	107.5	6938.4	-2027.5
6938.401	-4272.5	6938.401	-4662.5	6938.401	-2925	6938.401	167.5	6938.401	-2052.5
6938.402	-4260	6938.402	-4632.5	6938.402	-2872.5	6938.402	155	6938.402	-2000
6938.403	-4157.5	6938.403	-4612.5	6938.403	-2872.5	6938.403	105	6938.403	-1997.5
6938.404	-4177.5	6938.404	-4547.5	6938.404	-2832.5	6938.404	122.5	6938.404	-1990
6938.405	-4125	6938.405	-4515	6938.405	-2792.5	6938.405	210	6938.405	-1952.5
6938.406	-4070	6938.406	-4320	6938.406	-2767.5	6938.406	232.5	6938.406	-1932.5
6938.407	-3932.5	6938.407	-4235	6938.407	-2735	6938.407	367.5	6938.407	-1917.5
6938.408	-3835	6938.408	-4105	6938.408	-2697.5	6938.408	392.5	6938.408	-1860
6938.409	-3770	6938.409	-3960	6938.409	-2677.5	6938.409	350	6938.409	-1840
6938.41	-3770	6938.41	-3792.5	6938.41	-2642.5	6938.41	437.5	6938.41	-1820
6938.411	-3695	6938.411	-3800	6938.411	-2627.5	6938.411	410	6938.411	-1795
6938.412	-3742.5	6938.412	-3690	6938.412	-2622.5	6938.412	417.5	6938.412	-1840
6938.413	-3572.5	6938.413	-3622.5	6938.413	-2600	6938.413	430	6938.413	-1800
6938.414	-3570	6938.414	-3585	6938.414	-2562.5	6938.414	377.5	6938.414	-1787.5
6938.415	-3540	6938.415	-3660	6938.415	-2600	6938.415	295	6938.415	-1845
6938.416	-3617.5	6938.416	-3700	6938.416	-2512.5	6938.416	287.5	6938.416	-1770
6938.417	-3660	6938.417	-3782.5	6938.417	-2557.5	6938.417	190	6938.417	-1852.5
6938.418	-3727.5	6938.418	-3837.5	6938.418	-2577.5	6938.418	100	6938.418	-1935
6938.419	-3827.5	6938.419	-3910	6938.419	-2555	6938.419	55	6938.419	-1880
6938.42	-3797.5	6938.42	-3922.5	6938.42	-2560	6938.42	-15	6938.42	-1927.5
6938.421	-3702.5	6938.421	-3982.5	6938.421	-2522.5	6938.421	-97.5	6938.421	-1920
6938.422	-3670	6938.422	-4010	6938.422	-2497.5	6938.422	-85	6938.422	-1905
6938.423	-3675	6938.423	-3957.5	6938.423	-2497.5	6938.423	-72.5	6938.423	-1912.5
6938.424	-3622.5	6938.424	-3992.5	6938.424	-2452.5	6938.424	-150	6938.424	-1870
6938.425	-3540	6938.425	-3840	6938.425	-2427.5	6938.425	-132.5	6938.425	-1862.5
6938.426	-3525	6938.426	-3742.5	6938.426	-2402.5	6938.426	-97.5	6938.426	-1890
6938.427	-3420	6938.427	-3612.5	6938.427	-2382.5	6938.427	-145	6938.427	-1840
6938.428	-3355	6938.428	-3525	6938.428	-2347.5	6938.428	-92.5	6938.428	-1857.5
6938.429	-3340	6938.429	-3355	6938.429	-2332.5	6938.429	-137.5	6938.429	-1845
6938.43	-3177.5	6938.43	-3280	6938.43	-2305	6938.43	-115	6938.43	-1820
6938.431	-3150	6938.431	-3152.5	6938.431	-2297.5	6938.431	-110	6938.431	-1812.5
6938.432	-3175	6938.432	-3175	6938.432	-2292.5	6938.432	-110	6938.432	-1815
6938.433	-3162.5	6938.433	-3057.5	6938.433	-2262.5	6938.433	-107.5	6938.433	-1775
6938.434	-3140	6938.434	-3007.5	6938.434	-2255	6938.434	-162.5	6938.434	-1812.5
6938.435	-3165	6938.435	-3077.5	6938.435	-2265	6938.435	-232.5	6938.435	-1832.5
6938.436	-3225	6938.436	-3110	6938.436	-2267.5	6938.436	-312.5	6938.436	-1850
6938.437	-3167.5	6938.437	-3207.5	6938.437	-2245	6938.437	-357.5	6938.437	-1845
6938.438	-3232.5	6938.438	-3265	6938.438	-2260	6938.438	-422.5	6938.438	-1922.5
6938.439	-3262.5	6938.439	-3402.5	6938.439	-2207.5	6938.439	-515	6938.439	-1905
6938.44	-3387.5	6938.44	-3380	6938.44	-2195	6938.44	-605	6938.44	-1932.5
6938.441	-3397.5	6938.441	-3445	6938.441	-2165	6938.441	-657.5	6938.441	-1910
6938.442	-3332.5	6938.442	-3462.5	6938.442	-2167.5	6938.442	-615	6938.442	-1882.5
6938.443	-3282.5	6938.443	-3440	6938.443	-2152.5	6938.443	-660	6938.443	-1937.5
6938.444	-3200	6938.444	-3395	6938.444	-2130	6938.444	-700	6938.444	-1892.5
6938.445	-3122.5	6938.445	-3355	6938.445	-2147.5	6938.445	-687.5	6938.445	-1950
6938.446	-3082.5	6938.446	-3132.5	6938.446	-2097.5	6938.446	-700	6938.446	-1877.5
6938.447	-2867.5	6938.447	-3052.5	6938.447	-2067.5	6938.447	-680	6938.447	-1840
6938.448	-2900	6938.448	-2902.5	6938.448	-2040	6938.448	-607.5	6938.448	-1860
6938.449	-2832.5	6938.449	-2827.5	6938.449	-2025	6938.449	-567.5	6938.449	-1862.5
6938.45	-2807.5	6938.45	-2737.5	6938.45	-1970	6938.45	-572.5	6938.45	-1807.5
6938.451	-2695	6938.451	-2602.5	6938.451	-1977.5	6938.451	-565	6938.451	-1825
6938.452	-2747.5	6938.452	-2565	6938.452	-1947.5	6938.452	-580	6938.452	-1805
6938.453	-2690	6938.453	-2492.5	6938.453	-1982.5	6938.453	-542.5	6938.453	-1835
6938.454	-2670	6938.454	-2505	6938.454	-1890	6938.454	-665	6938.454	-1772.5
6938.455	-2655	6938.455	-2595	6938.455	-1932.5	6938.455	-632.5	6938.455	-1837.5
6938.456	-2687.5	6938.456	-2597.5	6938.456	-1925	6938.456	-727.5	6938.456	-1845
6938.457	-2727.5	6938.457	-2657.5	6938.457	-1912.5	6938.457	-785	6938.457	-1870
6938.458	-2775	6938.458	-2712.5	6938.458	-1912.5	6938.458	-860	6938.458	-1870
6938.459	-2807.5	6938.459	-2790	6938.459	-1925	6938.459	-1010	6938.459	-1907.5
6938.46	-2830	6938.46	-2847.5	6938.46	-1912.5	6938.46	-967.5	6938.46	-1890
6938.461	-2880	6938.461	-2897.5	6938.461	-1867.5	6938.461	-1085	6938.461	-1902.5
6938.462	-2860	6938.462	-2912.5	6938.462	-1857.5	6938.462	-1065	6938.462	-1865
6938.463	-2857.5	6938.463	-2930	6938.463	-1867.5	6938.463	-1115	6938.463	-1927.5
6938.464	-2890	6938.464	-2877.5	6938.464	-1835	6938.464	-1150	6938.464	-1870
6938.465	-2722.5	6938.465	-2750	6938.465	-1790	6938.465	-1077.5	6938.465	-1862.5
6938.466	-2597.5	6938.466	-2640	6938.466	-1770	6938.466	-1090	6938.466	-1847.5
6938.467	-2625	6938.467	-2605	6938.467	-1757.5	6938.467	-1060	6938.467	-1847.5
6938.468	-2410	6938.468	-2407.5	6938.468	-1732.5	6938.468	-972.5	6938.468	-1822.5
6938.469	-2387.5	6938.469	-2267.5	6938.469	-1737.5	6938.469	-972.5	6938.469	-1837.5
6938.47	-2412.5	6938.47	-2227.5	6938.47	-1680	6938.47	-962.5	6938.47	-1825
6938.471	-2230	6938.471	-2170	6938.471	-1687.5	6938.471	-932.5	6938.471	-1825
6938.472	-2232.5	6938.472	-2070	6938.472	-1652.5	6938.472	-912.5	6938.472	-1785
6938.473	-2300	6938.473	-1975	6938.473	-1635	6938.473	-925	6938.473	-1802.5
6938.474	-2277.5	6938.474	-2005	6938.474	-1665	6938.474	-967.5	6938.474	-1805
6938.475	-2312.5	6938.475	-2005	6938.475	-1600	6938.475	-1057.5	6938.475	-1785
6938.476	-2355	6938.476	-2072.5	6938.476	-1642.5	6938.476	-1060	6938.476	-1840
6938.477	-2295	6938.477	-2157.5	6938.477	-1642.5	6938.477	-1105	6938.477	-1850
6938.478	-2337.5	6938.478	-2250	6938.478	-1647.5	6938.478	-1205	6938.478	-1855
6938.479	-2430	6938.479	-2322.5	6938.479	-1630	6938.479	-1295	6938.479	-1910
6938.48	-2422.5	6938.48	-2355	6938.48	-1642.5	6938.48	-1387.5	6938.48	-1910
6938.481	-2465	6938.481	-2427.5	6938.481	-1610	6938.481	-1442.5	6938.481	-1935
6938.482	-2485	6938.482	-2377.5	6938.482	-1590	6938.482	-1427.5	6938.482	-1890
6938.483	-2455	6938.483	-2447.5	6938.483	-1550	6938.483	-1495	6938.483	-1865
6938.484	-2412.5	6938.484	-2432.5	6938.484	-1562.5	6938.484	-1537.5	6938.484	-1875
6938.485	-2342.5	6938.485	-2235	6938.485	-1500	6938.485	-1465	6938.485	-1832.5
6938.486	-2220	6938.486	-2172.5	6938.486	-1477.5	6938.486	-1470	6938.486	-1840
6938.487	-2202.5	6938.487	-2055	6938.487	-1465	6938.487	-1410	6938.487	-1845
6938.488	-2120	6938.488	-1965	6938.488	-1410	6938.488	-1310	6938.488	-1752.5
6938.489	-2122.5	6938.489	-1892.5	6938.489	-1385	6938.489	-1355	6938.489	-1747.5
6938.49	-2010	6938.49	-1710	6938.49	-1397.5	6938.49	-1312.5	6938.49	-1772.5
6938.491	-1907.5	6938.491	-1685	6938.491	-1355	6938.491	-1257.5	6938.491	-1702.5
6938.492	-1892.5	6938.492	-1662.5	6938.492	-1392.5	6938.492	-1275	6938.492	-1785
6938.493	-1880	6938.493	-1580	6938.493	-1322.5	6938.493	-1242.5	6938.493	-1730
6938.494	-1932.5	6938.494	-1565	6938.494	-1330	6938.494	-1287.5	6938.494	-1755
6938.495	-1977.5	6938.495	-1635	6938.495	-1345	6938.495	-1372.5	6938.495	-1757.5
6938.496	-1897.5	6938.496	-1687.5	6938.496	-1310	6938.496	-1382.5	6938.496	-1767.5
6938.497	-1967.5	6938.497	-1737.5	6938.497	-1362.5	6938.497	-1427.5	6938.497	-1842.5
6938.498	-2032.5	6938.498	-1847.5	6938.498	-1355	6938.498	-1490	6938.498	-1840
6938.499	-2100	6938.499	-1897.5	6938.499	-1327.5	6938.499	-1575	6938.499	-1807.5
6938.5	-2172.5	6938.5	-2010	6938.5	-1310	6938.5	-1602.5	6938.5	-1820
6938.501	-2232.5	6938.501	-2015	6938.501	-1290	6938.501	-1637.5	6938.501	-1797.5
6938.502	-2120	6938.502	-1992.5	6938.502	-1282.5	6938.502	-1647.5	6938.502	-1855
6938.503	-2115	6938.503	-2027.5	6938.503	-1270	6938.503	-1702.5	6938.503	-1840
6938.504	-2180	6938.504	-1977.5	6938.504	-1247.5	6938.504	-1687.5	6938.504	-1805
6938.505	-1962.5	6938.505	-1867.5	6938.505	-1230	6938.505	-1622.5	6938.505	-1785
6938.506	-1810	6938.506	-1795	6938.506	-1195	6938.506	-1595	6938.506	-1795
6938.507	-1820	6938.507	-1707.5	6938.507	-1190	6938.507	-1567.5	6938.507	-1740
6938.508	-1690	6938.508	-1505	6938.508	-1150	6938.508	-1485	6938.508	-1712.5
6938.509	-1772.5	6938.509	-1460	6938.509	-1142.5	6938.509	-1467.5	6938.509	-1702.5
6938.51	-1610	6938.51	-1342.5	6938.51	-1092.5	6938.51	-1420	6938.51	-1697.5
6938.511	-1585	6938.511	-1187.5	6938.511	-1077.5	6938.511	-1390	6938.511	-1642.5
6938.512	-1607.5	6938.512	-1217.5	6938.512	-1085	6938.512	-1362.5	6938.512	-1672.5
6938.513	-1627.5	6938.513	-1155	6938.513	-1072.5	6938.513	-1347.5	6938.513	-1697.5
6938.514	-1550	6938.514	-1227.5	6938.514	-1042.5	6938.514	-1315	6938.514	-1715
6938.515	-1562.5	6938.515	-1277.5	6938.515	-1047.5	6938.515	-1402.5	6938.515	-1672.5
6938.516	-1627.5	6938.516	-1252.5	6938.516	-1047.5	6938.516	-1420	6938.516	-1670
6938.517	-1662.5	6938.517	-1300	6938.517	-1045	6938.517	-1412.5	6938.517	-1682.5
6938.518	-1775	6938.518	-1380	6938.518	-1060	6938.518	-1485	6938.518	-1707.5
6938.519	-1800	6938.519	-1455	6938.519	-1020	6938.519	-1525	6938.519	-1695
6938.52	-1810	6938.52	-1502.5	6938.52	-1015	6938.52	-1567.5	6938.52	-1680
6938.521	-1727.5	6938.521	-1607.5	6938.521	-1030	6938.521	-1632.5	6938.521	-1750
6938.522	-1827.5	6938.522	-1492.5	6938.522	-997.5	6938.522	-1585	6938.522	-1697.5
6938.523	-1865	6938.523	-1610	6938.523	-1005	6938.523	-1630	6938.523	-1705
6938.524	-1797.5	6938.524	-1547.5	6938.524	-952.5	6938.524	-1640	6938.524	-1672.5
6938.525	-1645	6938.525	-1492.5	6938.525	-965	6938.525	-1605	6938.525	-1660
6938.526	-1652.5	6938.526	-1405	6938.526	-955	6938.526	-1570	6938.526	-1655
6938.527	-1597.5	6938.527	-1330	6938.527	-910	6938.527	-1460	6938.527	-1600
6938.528	-1517.5	6938.528	-1122.5	6938.528	-902.5	6938.528	-1367.5	6938.528	-1632.5
6938.529	-1450	6938.529	-1020	6938.529	-887.5	6938.529	-1305	6938.529	-1607.5
6938.53	-1347.5	6938.53	-930	6938.53	-845	6938.53	-1277.5	6938.53	-1580
6938.531	-1385	6938.531	-917.5	6938.531	-832.5	6938.531	-1252.5	6938.531	-1557.5
6938.532	-1372.5	6938.532	-815	6938.532	-825	6938.532	-1212.5	6938.532	-1557.5
6938.533	-1435	6938.533	-747.5	6938.533	-835	6938.533	-1172.5	6938.533	-1592.5
6938.534	-1275	6938.534	-785	6938.534	-832.5	6938.534	-1217.5	6938.534	-1595
6938.535	-1367.5	6938.535	-820	6938.535	-815	6938.535	-1225	6938.535	-1542.5
6938.536	-1465	6938.536	-892.5	6938.536	-825	6938.536	-1235	6938.536	-1555
6938.537	-1415	6938.537	-1010	6938.537	-790	6938.537	-1260	6938.537	-1575
6938.538	-1427.5	6938.538	-1037.5	6938.538	-767.5	6938.538	-1307.5	6938.538	-1562.5
6938.539	-1422.5	6938.539	-1137.5	6938.539	-785	6938.539	-1337.5	6938.539	-1585
6938.54	-1442.5	6938.54	-1270	6938.54	-805	6938.54	-1410	6938.54	-1570
6938.541	-1602.5	6938.541	-1290	6938.541	-772.5	6938.541	-1407.5	6938.541	-1570
6938.542	-1487.5	6938.542	-1240	6938.542	-787.5	6938.542	-1420	6938.542	-1595
6938.543	-1467.5	6938.543	-1300	6938.543	-737.5	6938.543	-1350	6938.543	-1535
6938.544	-1507.5	6938.544	-1247.5	6938.544	-747.5	6938.544	-1357.5	6938.544	-1537.5
6938.545	-1457.5	6938.545	-1152.5	6938.545	-720	6938.545	-1330	6938.545	-1497.5
6938.546	-1297.5	6938.546	-1002.5	6938.546	-667.5	6938.546	-1220	6938.546	-1487.5
6938.547	-1177.5	6938.547	-975	6938.547	-645	6938.547	-1222.5	6938.547	-1502.5
6938.548	-1107.5	6938.548	-775	6938.548	-607.5	6938.548	-1120	6938.548	-1417.5
6938.549	-1065	6938.549	-700	6938.549	-575	6938.549	-1072.5	6938.549	-1432.5
6938.55	-1095	6938.55	-627.5	6938.55	-580	6938.55	-1052.5	6938.55	-1417.5
6938.551	-1005	6938.551	-595	6938.551	-567.5	6938.551	-990	6938.551	-1360
6938.552	-972.5	6938.552	-480	6938.552	-575	6938.552	-955	6938.552	-1382.5
6938.553	-957.5	6938.553	-450	6938.553	-550	6938.553	-915	6938.553	-1365
6938.554	-947.5	6938.554	-392.5	6938.554	-527.5	6938.554	-950	6938.554	-1332.5
6938.555	-930	6938.555	-497.5	6938.555	-537.5	6938.555	-917.5	6938.555	-1337.5
6938.556	-975	6938.556	-605	6938.556	-522.5	6938.556	-935	6938.556	-1365
6938.557	-1047.5	6938.557	-630	6938.557	-485	6938.557	-997.5	6938.557	-1347.5
6938.558	-1177.5	6938.558	-797.5	6938.558	-507.5	6938.558	-1062.5	6938.558	-1357.5
6938.559	-1152.5	6938.559	-912.5	6938.559	-517.5	6938.559	-1082.5	6938.559	-1377.5
6938.56	-1155	6938.56	-900	6938.56	-507.5	6938.56	-1142.5	6938.56	-1365
6938.561	-1247.5	6938.561	-980	6938.561	-480	6938.561	-1210	6938.561	-1367.5
6938.562	-1205	6938.562	-995	6938.562	-505	6938.562	-1160	6938.562	-1385
6938.563	-1132.5	6938.563	-1012.5	6938.563	-477.5	6938.563	-1122.5	6938.563	-1360
6938.564	-1122.5	6938.564	-957.5	6938.564	-455	6938.564	-1147.5	6938.564	-1342.5
6938.565	-1130	6938.565	-892.5	6938.565	-450	6938.565	-1062.5	6938.565	-1322.5
6938.566	-1067.5	6938.566	-770	6938.566	-397.5	6938.566	-987.5	6938.566	-1262.5
6938.567	-922.5	6938.567	-672.5	6938.567	-397.5	6938.567	-972.5	6938.567	-1277.5
6938.568	-907.5	6938.568	-500	6938.568	-377.5	6938.568	-870	6938.568	-1200
6938.569	-867.5	6938.569	-522.5	6938.569	-355	6938.569	-805	6938.569	-1190
6938.57	-772.5	6938.57	-370	6938.57	-332.5	6938.57	-770	6938.57	-1182.5
6938.571	-710	6938.571	-307.5	6938.571	-307.5	6938.571	-765	6938.571	-1187.5
6938.572	-692.5	6938.572	-212.5	6938.572	-280	6938.572	-677.5	6938.572	-1157.5
6938.573	-697.5	6938.573	-225	6938.573	-312.5	6938.573	-717.5	6938.573	-1155
6938.574	-750	6938.574	-172.5	6938.574	-310	6938.574	-695	6938.574	-1200
6938.575	-722.5	6938.575	-205	6938.575	-285	6938.575	-725	6938.575	-1167.5
6938.576	-827.5	6938.576	-337.5	6938.576	-280	6938.576	-692.5	6938.576	-1177.5
6938.577	-895	6938.577	-332.5	6938.577	-310	6938.577	-725	6938.577	-1222.5
6938.578	-917.5	6938.578	-395	6938.578	-302.5	6938.578	-857.5	6938.578	-1182.5
6938.579	-1065	6938.579	-515	6938.579	-300	6938.579	-822.5	6938.579	-1187.5
6938.58	-995	6938.58	-600	6938.58	-327.5	6938.58	-865	6938.58	-1215
6938.581	-890	6938.581	-732.5	6938.581	-307.5	6938.581	-900	6938.581	-1220
6938.582	-945	6938.582	-780	6938.582	-305	6938.582	-940	6938.582	-1197.5
6938.583	-942.5	6938.583	-785	6938.583	-252.5	6938.583	-897.5	6938.583	-1165
6938.584	-970	6938.584	-807.5	6938.584	-287.5	6938.584	-860	6938.584	-1202.5
6938.585	-910	6938.585	-717.5	6938.585	-252.5	6938.585	-817.5	6938.585	-1177.5
6938.586	-785	6938.586	-565	6938.586	-217.5	6938.586	-777.5	6938.586	-1077.5
6938.587	-770	6938.587	-435	6938.587	-190	6938.587	-795	6938.587	-1055
6938.588	-662.5	6938.588	-330	6938.588	-162.5	6938.588	-675	6938.588	-992.5
6938.589	-587.5	6938.589	-205	6938.589	-120	6938.589	-610	6938.589	-967.5
6938.59	-665	6938.59	-157.5	6938.59	-127.5	6938.59	-627.5	6938.59	-1045
6938.591	-557.5	6938.591	-7.5	6938.591	-130	6938.591	-517.5	6938.591	-987.5
6938.592	-582.5	6938.592	-40	6938.592	-120	6938.592	-542.5	6938.592	-1050
6938.593	-555	6938.593	17.5	6938.593	-107.5	6938.593	-415	6938.593	-982.5
6938.594	-520	6938.594	55	6938.594	-90	6938.594	-445	6938.594	-975
6938.595	-685	6938.595	-75	6938.595	-105	6938.595	-487.5	6938.595	-980
6938.596	-665	6938.596	-70	6938.596	-115	6938.596	-497.5	6938.596	-1027.5
6938.597	-690	6938.597	-157.5	6938.597	-77.5	6938.597	-555	6938.597	-962.5
6938.598	-770	6938.598	-315	6938.598	-117.5	6938.598	-625	6938.598	-1050
6938.599	-845	6938.599	-285	6938.599	-120	6938.599	-627.5	6938.599	-1017.5
6938.6	-922.5	6938.6	-450	6938.6	-75	6938.6	-685	6938.6	-990
6938.601	-902.5	6938.601	-520	6938.601	-87.5	6938.601	-782.5	6938.601	-1000
6938.602	-812.5	6938.602	-485	6938.602	-95	6938.602	-732.5	6938.602	-1002.5
6938.603	-860	6938.603	-515	6938.603	-82.5	6938.603	-760	6938.603	-965
6938.604	-852.5	6938.604	-500	6938.604	-60	6938.604	-745	6938.604	-960
6938.605	-725	6938.605	-440	6938.605	-72.5	6938.605	-715	6938.605	-957.5
6938.606	-735	6938.606	-290	6938.606	-47.5	6938.606	-627.5	6938.606	-932.5
6938.607	-652.5	6938.607	-202.5	6938.607	17.5	6938.607	-572.5	6938.607	-892.5
6938.608	-485	6938.608	-100	6938.608	7.5	6938.608	-487.5	6938.608	-905
6938.609	-542.5	6938.609	-7.5	6938.609	47.5	6938.609	-500	6938.609	-827.5
6938.61	-510	6938.61	107.5	6938.61	22.5	6938.61	-425	6938.61	-845
6938.611	-380	6938.611	175	6938.611	77.5	6938.611	-360	6938.611	-830
6938.612	-432.5	6938.612	195	6938.612	12.5	6938.612	-352.5	6938.612	-912.5
6938.613	-355	6938.613	115	6938.613	32.5	6938.613	-392.5	6938.613	-852.5
6938.614	-425	6938.614	147.5	6938.614	27.5	6938.614	-310	6938.614	-852.5
6938.615	-467.5	6938.615	92.5	6938.615	40	6938.615	-392.5	6938.615	-857.5
6938.616	-497.5	6938.616	-15	6938.616	0	6938.616	-355	6938.616	-917.5
6938.617	-567.5	6938.617	-92.5	6938.617	-77.5	6938.617	-467.5	6938.617	-990
6938.618	-632.5	6938.618	-130	6938.618	-27.5	6938.618	-452.5	6938.618	-950
6938.619	-730	6938.619	-115	6938.619	7.5	6938.619	-480	6938.619	-927.5
6938.62	-785	6938.62	-347.5	6938.62	2.5	6938.62	-545	6938.62	-947.5
6938.621	-815	6938.621	-470	6938.621	-37.5	6938.621	-577.5	6938.621	-945
6938.622	-885	6938.622	-515	6938.622	-82.5	6938.622	-592.5	6938.622	-992.5
6938.623	-985	6938.623	-597.5	6938.623	-205	6938.623	-685	6938.623	-1092.5
6938.624	-825	6938.624	-502.5	6938.624	-100	6938.624	-607.5	6938.624	-1047.5
6938.625	-615	6938.625	-247.5	6938.625	125	6938.625	-335	6938.625	-782.5
6938.626	-605	6938.626	-252.5	6938.626	42.5	6938.626	-402.5	6938.626	-880
6938.627	-812.5	6938.627	-392.5	6938.627	-205	6938.627	-620	6938.627	-1110
6938.628	-812.5	6938.628	-410	6938.628	-317.5	6938.628	-672.5	6938.628	-1250
6938.629	-1320	6938.629	-880	6938.629	-905	6938.629	-1140	6938.629	-1770
6938.63	-1532.5	6938.63	-1032.5	6938.63	-1082.5	6938.63	-1320	6938.63	-1967.5
6938.631	-1505	6938.631	-1050	6938.631	-1167.5	6938.631	-1395	6938.631	-2032.5
6938.632	-2527.5	6938.632	-2042.5	6938.632	-2350	6938.632	-2437.5	6938.632	-3265
6938.633	-2810	6938.633	-2230	6938.633	-2567.5	6938.633	-2677.5	6938.633	-3432.5
6938.634	-2770	6938.634	-2142.5	6938.634	-2380	6938.634	-2475	6938.634	-3245
6938.635	-2630	6938.635	-2032.5	6938.635	-2185	6938.635	-2407.5	6938.635	-3030
6938.636	-2632.5	6938.636	-2170	6938.636	-2217.5	6938.636	-2472.5	6938.636	-3057.5
6938.637	-2590	6938.637	-1975	6938.637	-2015	6938.637	-2285	6938.637	-2877.5
6938.638	-1970	6938.638	-1397.5	6938.638	-1290	6938.638	-1597.5	6938.638	-2142.5
6938.639	-2062.5	6938.639	-1607.5	6938.639	-1375	6938.639	-1727.5	6938.639	-2252.5
6938.64	-2592.5	6938.64	-2292.5	6938.64	-1980	6938.64	-2300	6938.64	-2832.5
6938.641	-2920	6938.641	-2635	6938.641	-2295	6938.641	-2615	6938.641	-3160
6938.642	-3060	6938.642	-2757.5	6938.642	-2467.5	6938.642	-2810	6938.642	-3317.5
6938.643	-3245	6938.643	-2882.5	6938.643	-2532.5	6938.643	-2820	6938.643	-3392.5
6938.644	-2885	6938.644	-2532.5	6938.644	-2197.5	6938.644	-2637.5	6938.644	-3055
6938.645	-2732.5	6938.645	-2490	6938.645	-2195	6938.645	-2517.5	6938.645	-3070
6938.646	-2957.5	6938.646	-2550	6938.646	-2322.5	6938.646	-2647.5	6938.646	-3240
6938.647	-2920	6938.647	-2452.5	6938.647	-2317.5	6938.647	-2532.5	6938.647	-3152.5
6938.648	-2262.5	6938.648	-1832.5	6938.648	-1700	6938.648	-1967.5	6938.648	-2550
6938.649	-1680	6938.649	-1165	6938.649	-1090	6938.649	-1302.5	6938.649	-1937.5
6938.65	-1382.5	6938.65	-830	6938.65	-827.5	6938.65	-967.5	6938.65	-1662.5
6938.651	-1487.5	6938.651	-820	6938.651	-965	6938.651	-1010	6938.651	-1787.5
6938.652	-1565	6938.652	-1005	6938.652	-1145	6938.652	-1207.5	6938.652	-1930
6938.653	-1595	6938.653	-990	6938.653	-1192.5	6938.653	-1257.5	6938.653	-2055
6938.654	-1632.5	6938.654	-1032.5	6938.654	-1222.5	6938.654	-1205	6938.654	-2032.5
6938.655	-1647.5	6938.655	-1132.5	6938.655	-1217.5	6938.655	-1295	6938.655	-2025
6938.656	-1787.5	6938.656	-1177.5	6938.656	-1292.5	6938.656	-1342.5	6938.656	-2142.5
6938.657	-1855	6938.657	-1327.5	6938.657	-1335	6938.657	-1407.5	6938.657	-2157.5
6938.658	-1925	6938.658	-1427.5	6938.658	-1302.5	6938.658	-1380	6938.658	-2125
6938.659	-1955	6938.659	-1510	6938.659	-1372.5	6938.659	-1535	6938.659	-2190
6938.66	-2050	6938.66	-1590	6938.66	-1312.5	6938.66	-1510	6938.66	-2140
6938.661	-2112.5	6938.661	-1660	6938.661	-1340	6938.661	-1522.5	6938.661	-2180
6938.662	-2027.5	6938.662	-1670	6938.662	-1295	6938.662	-1470	6938.662	-2122.5
6938.663	-1980	6938.663	-1697.5	6938.663	-1275	6938.663	-1532.5	6938.663	-2105
6938.664	-2082.5	6938.664	-1585	6938.664	-1267.5	6938.664	-1395	6938.664	-2067.5
6938.665	-1937.5	6938.665	-1487.5	6938.665	-1205	6938.665	-1367.5	6938.665	-2032.5
6938.666	-1775	6938.666	-1455	6938.666	-1177.5	6938.666	-1275	6938.666	-1980
6938.667	-1690	6938.667	-1337.5	6938.667	-1167.5	6938.667	-1192.5	6938.667	-1962.5
6938.668	-1622.5	6938.668	-1190	6938.668	-1097.5	6938.668	-1165	6938.668	-1907.5
6938.669	-1547.5	6938.669	-1080	6938.669	-1105	6938.669	-1052.5	6938.669	-1877.5
6938.67	-1447.5	6938.67	-990	6938.67	-1045	6938.67	-1005	6938.67	-1805
6938.671	-1400	6938.671	-802.5	6938.671	-1035	6938.671	-855	6938.671	-1765
6938.672	-1395	6938.672	-827.5	6938.672	-1010	6938.672	-840	6938.672	-1790
6938.673	-1455	6938.673	-752.5	6938.673	-967.5	6938.673	-810	6938.673	-1692.5
6938.674	-1337.5	6938.674	-655	6938.674	-917.5	6938.674	-762.5	6938.674	-1722.5
6938.675	-1430	6938.675	-795	6938.675	-902.5	6938.675	-805	6938.675	-1675
6938.676	-1457.5	6938.676	-805	6938.676	-910	6938.676	-752.5	6938.676	-1680
6938.677	-1435	6938.677	-820	6938.677	-875	6938.677	-735	6938.677	-1657.5
6938.678	-1522.5	6938.678	-927.5	6938.678	-855	6938.678	-802.5	6938.678	-1672.5
6938.679	-1447.5	6938.679	-982.5	6938.679	-852.5	6938.679	-800	6938.679	-1672.5
6938.68	-1520	6938.68	-1132.5	6938.68	-830	6938.68	-835	6938.68	-1645
6938.681	-1550	6938.681	-1165	6938.681	-842.5	6938.681	-850	6938.681	-1622.5
6938.682	-1440	6938.682	-1142.5	6938.682	-802.5	6938.682	-752.5	6938.682	-1565
6938.683	-1405	6938.683	-1187.5	6938.683	-785	6938.683	-820	6938.683	-1557.5
6938.684	-1330	6938.684	-1022.5	6938.684	-720	6938.684	-707.5	6938.684	-1515
6938.685	-1322.5	6938.685	-912.5	6938.685	-677.5	6938.685	-695	6938.685	-1445
6938.686	-1217.5	6938.686	-857.5	6938.686	-627.5	6938.686	-590	6938.686	-1355
6938.687	-1160	6938.687	-772.5	6938.687	-592.5	6938.687	-472.5	6938.687	-1312.5
6938.688	-1057.5	6938.688	-620	6938.688	-505	6938.688	-387.5	6938.688	-1280
6938.689	-1027.5	6938.689	-552.5	6938.689	-497.5	6938.689	-300	6938.689	-1222.5
6938.69	-857.5	6938.69	-355	6938.69	-447.5	6938.69	-222.5	6938.69	-1172.5
6938.691	-767.5	6938.691	-235	6938.691	-407.5	6938.691	-175	6938.691	-1165
6938.692	-775	6938.692	-265	6938.692	-407.5	6938.692	-107.5	6938.692	-1142.5
6938.693	-752.5	6938.693	-132.5	6938.693	-360	6938.693	-77.5	6938.693	-1102.5
6938.694	-725	6938.694	-57.5	6938.694	-302.5	6938.694	-45	6938.694	-1015
6938.695	-727.5	6938.695	-67.5	6938.695	-280	6938.695	-7.5	6938.695	-1015
6938.696	-775	6938.696	-125	6938.696	-285	6938.696	-20	6938.696	-1017.5
6938.697	-785	6938.697	-147.5	6938.697	-252.5	6938.697	72.5	6938.697	-975
6938.698	-772.5	6938.698	-267.5	6938.698	-205	6938.698	-27.5	6938.698	-930
6938.699	-855	6938.699	-442.5	6938.699	-195	6938.699	-32.5	6938.699	-940
6938.7	-1125	6938.7	-607.5	6938.7	-237.5	6938.7	-127.5	6938.7	-925
6938.701	-1325	6938.701	-827.5	6938.701	-352.5	6938.701	-317.5	6938.701	-1037.5
6938.702	-1637.5	6938.702	-1142.5	6938.702	-542.5	6938.702	-440	6938.702	-1145
6938.703	-1600	6938.703	-1200	6938.703	-200	6938.703	-107.5	6938.703	-782.5
6938.704	-262.5	6938.704	77.5	6938.704	1187.5	6938.704	1447.5	6938.704	657.5
6938.705	1705	6938.705	1967.5	6938.705	2937.5	6938.705	3620	6938.705	2432.5
6938.706	4545	6938.706	4540	6938.706	4490	6938.706	5802.5	6938.706	3872.5
6938.707	8372.5	6938.707	8100	6938.707	7230	6938.707	9052.5	6938.707	6410
6938.708	14322.5	6938.708	13835	6938.708	12945	6938.708	14902.5	6938.708	12092.5
6938.709	20605	6938.709	20060	6938.709	20830	6938.709	21855	6938.709	20147.5
6938.71	31387.5	6938.71	31155	6938.71	34435	6938.71	33755	6938.71	34060
6938.711	39930	6938.711	40387.5	6938.711	45437.5	6938.711	43107.5	6938.711	45355
6938.712	46105	6938.712	47470	6938.712	53480	6938.712	49925	6938.712	53585
6938.713	51012.5	6938.713	53725	6938.713	60690	6938.713	56707.5	6938.713	60902.5
6938.714	56522.5	6938.714	61415	6938.714	71990	6938.714	64707.5	6938.714	72575
6938.715	58700	6938.715	65145	6938.715	67130	6938.715	54062.5	6938.715	66785
6938.716	59280	6938.716	65827.5	6938.716	32865	6938.716	45100	6938.716	25597.5
6938.717	55380	6938.717	60815	6938.717	28390	6938.717	43317.5	6938.717	20975
6938.718	43187.5	6938.718	40227.5	6938.718	10520	6938.718	27275	6938.718	6420
6938.719	23992.5	6938.719	16497.5	6938.719	4957.5	6938.719	7062.5	6938.719	1577.5
6938.72	12117.5	6938.72	10625	6938.72	4827.5	6938.72	5955	6938.72	2065
6938.721	11655	6938.721	10897.5	6938.721	6505	6938.721	7105	6938.721	4000
6938.722	11777.5	6938.722	11015	6938.722	7242.5	6938.722	7465	6938.722	5002.5
6938.723	10370	6938.723	9955	6938.723	6747.5	6938.723	6465	6938.723	4580
6938.724	10125	6938.724	10460	6938.724	7977.5	6938.724	6732.5	6938.724	5767.5
6938.725	10500	6938.725	11165	6938.725	8677.5	6938.725	7057.5	6938.725	6450
6938.726	10745	6938.726	11640	6938.726	9117.5	6938.726	7287.5	6938.726	6825
6938.727	10742.5	6938.727	11630	6938.727	9027.5	6938.727	7150	6938.727	6727.5
6938.728	11410	6938.728	12222.5	6938.728	9497.5	6938.728	7742.5	6938.728	7210
6938.729	12512.5	6938.729	13332.5	6938.729	10592.5	6938.729	8932.5	6938.729	8260
6938.73	14017.5	6938.73	14932.5	6938.73	11987.5	6938.73	10680	6938.73	9705
6938.731	15527.5	6938.731	16480	6938.731	13360	6938.731	12405	6938.731	11130
6938.732	16870	6938.732	17947.5	6938.732	14722.5	6938.732	14115	6938.732	12445
6938.733	18072.5	6938.733	19397.5	6938.733	16032.5	6938.733	15907.5	6938.733	13840
6938.734	19245	6938.734	20517.5	6938.734	17187.5	6938.734	17522.5	6938.734	15002.5
6938.735	19947.5	6938.735	21420	6938.735	18142.5	6938.735	18677.5	6938.735	16035
6938.736	20575	6938.736	22042.5	6938.736	18895	6938.736	19705	6938.736	16820
6938.737	20930	6938.737	22485	6938.737	19435	6938.737	20355	6938.737	17415
6938.738	21162.5	6938.738	22717.5	6938.738	19762.5	6938.738	20800	6938.738	17747.5
6938.739	21197.5	6938.739	22775	6938.739	19925	6938.739	21065	6938.739	17890
6938.74	21195	6938.74	22720	6938.74	19920	6938.74	21170	6938.74	17920
6938.741	21047.5	6938.741	22602.5	6938.741	19820	6938.741	21095	6938.741	17812.5
6938.742	20910	6938.742	22330	6938.742	19617.5	6938.742	21020	6938.742	17635
6938.743	20677.5	6938.743	22115	6938.743	19357.5	6938.743	20747.5	6938.743	17385
6938.744	20387.5	6938.744	21727.5	6938.744	19017.5	6938.744	20355	6938.744	17037.5
6938.745	20105	6938.745	21550	6938.745	18617.5	6938.745	20057.5	6938.745	16715
6938.746	19745	6938.746	21142.5	6938.746	18175	6938.746	19615	6938.746	16270
6938.747	19342.5	6938.747	20762.5	6938.747	17762.5	6938.747	19165	6938.747	15880
6938.748	18997.5	6938.748	20400	6938.748	17300	6938.748	18672.5	6938.748	15462.5
6938.749	18635	6938.749	19967.5	6938.749	16820	6938.749	18257.5	6938.749	14980
6938.75	18210	6938.75	19487.5	6938.75	16300	6938.75	17762.5	6938.75	14477.5
6938.751	17680	6938.751	19055	6938.751	15815	6938.751	17275	6938.751	14007.5
6938.752	17217.5	6938.752	18590	6938.752	15315	6938.752	16725	6938.752	13540
6938.753	16835	6938.753	18117.5	6938.753	14855	6938.753	16222.5	6938.753	13087.5
6938.754	16347.5	6938.754	17652.5	6938.754	14347.5	6938.754	15787.5	6938.754	12617.5
6938.755	15727.5	6938.755	17057.5	6938.755	13922.5	6938.755	15245	6938.755	12202.5
6938.756	15212.5	6938.756	16482.5	6938.756	13455	6938.756	14652.5	6938.756	11720
6938.757	14817.5	6938.757	16007.5	6938.757	13040	6938.757	14170	6938.757	11322.5
6938.758	14352.5	6938.758	15385	6938.758	12637.5	6938.758	13645	6938.758	10920
6938.759	13835	6938.759	14920	6938.759	12222.5	6938.759	13170	6938.759	10500
6938.76	13357.5	6938.76	14375	6938.76	11815	6938.76	12747.5	6938.76	10127.5
6938.761	12840	6938.761	13812.5	6938.761	11437.5	6938.761	12277.5	6938.761	9765
6938.762	12535	6938.762	13490	6938.762	11095	6938.762	11842.5	6938.762	9440
6938.763	12080	6938.763	13027.5	6938.763	10752.5	6938.763	11452.5	6938.763	9095
6938.764	11757.5	6938.764	12627.5	6938.764	10380	6938.764	11070	6938.764	8765
6938.765	11492.5	6938.765	12315	6938.765	10072.5	6938.765	10810	6938.765	8495
6938.766	11187.5	6938.766	12065	6938.766	9787.5	6938.766	10515	6938.766	8207.5
6938.767	10897.5	6938.767	11782.5	6938.767	9480	6938.767	10252.5	6938.767	7927.5
6938.768	10687.5	6938.768	11490	6938.768	9220	6938.768	9955	6938.768	7710
6938.769	10372.5	6938.769	11272.5	6938.769	8975	6938.769	9645	6938.769	7420
6938.77	10197.5	6938.77	10985	6938.77	8685	6938.77	9295	6938.77	7177.5
6938.771	9825	6938.771	10740	6938.771	8412.5	6938.771	8805	6938.771	6955
6938.772	9555	6938.772	10482.5	6938.772	8142.5	6938.772	8370	6938.772	6682.5
6938.773	9240	6938.773	10205	6938.773	7882.5	6938.773	7850	6938.773	6450
6938.774	8940	6938.774	9785	6938.774	7642.5	6938.774	7355	6938.774	6210
6938.775	8582.5	6938.775	9410	6938.775	7355	6938.775	6787.5	6938.775	5962.5
6938.776	8312.5	6938.776	9025	6938.776	7115	6938.776	6237.5	6938.776	5700
6938.777	8020	6938.777	8660	6938.777	6845	6938.777	5660	6938.777	5445
6938.778	7637.5	6938.778	8255	6938.778	6552.5	6938.778	5115	6938.778	5235
6938.779	7302.5	6938.779	7822.5	6938.779	6337.5	6938.779	4607.5	6938.779	5025
6938.78	6872.5	6938.78	7467.5	6938.78	6097.5	6938.78	4107.5	6938.78	4777.5
6938.781	6580	6938.781	7102.5	6938.781	5785	6938.781	3560	6938.781	4530
6938.782	6317.5	6938.782	6705	6938.782	5567.5	6938.782	3072.5	6938.782	4320
6938.783	6130	6938.783	6357.5	6938.783	5330	6938.783	2670	6938.783	4085
6938.784	5770	6938.784	6130	6938.784	5047.5	6938.784	2195	6938.784	3855
6938.785	5575	6938.785	5932.5	6938.785	4865	6938.785	1897.5	6938.785	3677.5
6938.786	5357.5	6938.786	5667.5	6938.786	4645	6938.786	1525	6938.786	3502.5
6938.787	5182.5	6938.787	5455	6938.787	4450	6938.787	1232.5	6938.787	3385
6938.788	4942.5	6938.788	5257.5	6938.788	4185	6938.788	895	6938.788	3147.5
6938.789	4767.5	6938.789	5050	6938.789	3995	6938.789	600	6938.789	2962.5
6938.79	4497.5	6938.79	4947.5	6938.79	3762.5	6938.79	362.5	6938.79	2727.5
6938.791	4277.5	6938.791	4732.5	6938.791	3565	6938.791	30	6938.791	2587.5
6938.792	4080	6938.792	4390	6938.792	3335	6938.792	-297.5	6938.792	2382.5
6938.793	3812.5	6938.793	4247.5	6938.793	3105	6938.793	-575	6938.793	2152.5
6938.794	3610	6938.794	4027.5	6938.794	2857.5	6938.794	-857.5	6938.794	1962.5
6938.795	3177.5	6938.795	3605	6938.795	2617.5	6938.795	-1175	6938.795	1750
6938.796	2915	6938.796	3237.5	6938.796	2382.5	6938.796	-1472.5	6938.796	1502.5
6938.797	2665	6938.797	2937.5	6938.797	2125	6938.797	-1790	6938.797	1240
6938.798	2280	6938.798	2532.5	6938.798	1940	6938.798	-2070	6938.798	1115
6938.799	2015	6938.799	2190	6938.799	1687.5	6938.799	-2300	6938.799	865
6938.8	1685	6938.8	1825	6938.8	1452.5	6938.8	-2707.5	6938.8	667.5
6938.801	1382.5	6938.801	1480	6938.801	1212.5	6938.801	-2935	6938.801	460
6938.802	1232.5	6938.802	1270	6938.802	1010	6938.802	-3132.5	6938.802	262.5
6938.803	897.5	6938.803	902.5	6938.803	810	6938.803	-3380	6938.803	85
6938.804	725	6938.804	715	6938.804	587.5	6938.804	-3590	6938.804	-122.5
6938.805	492.5	6938.805	585	6938.805	395	6938.805	-3740	6938.805	-260
6938.806	437.5	6938.806	372.5	6938.806	227.5	6938.806	-3907.5	6938.806	-450
6938.807	120	6938.807	212.5	6938.807	-2.5	6938.807	-4017.5	6938.807	-625
6938.808	37.5	6938.808	32.5	6938.808	-132.5	6938.808	-4125	6938.808	-765
6938.809	-127.5	6938.809	-125	6938.809	-360	6938.809	-4272.5	6938.809	-965
6938.81	-292.5	6938.81	-275	6938.81	-557.5	6938.81	-4422.5	6938.81	-1145
6938.811	-580	6938.811	-400	6938.811	-755	6938.811	-4542.5	6938.811	-1275
6938.812	-715	6938.812	-605	6938.812	-957.5	6938.812	-4647.5	6938.812	-1470
6938.813	-912.5	6938.813	-702.5	6938.813	-1095	6938.813	-4790	6938.813	-1630
6938.814	-1172.5	6938.814	-920	6938.814	-1317.5	6938.814	-4982.5	6938.814	-1790
6938.815	-1402.5	6938.815	-1217.5	6938.815	-1512.5	6938.815	-5165	6938.815	-1945
6938.816	-1632.5	6938.816	-1470	6938.816	-1672.5	6938.816	-5415	6938.816	-2107.5
6938.817	-1892.5	6938.817	-1747.5	6938.817	-1862.5	6938.817	-5582.5	6938.817	-2312.5
6938.818	-2097.5	6938.818	-2067.5	6938.818	-2040	6938.818	-5715	6938.818	-2440
6938.819	-2300	6938.819	-2325	6938.819	-2160	6938.819	-5910	6938.819	-2565
6938.82	-2530	6938.82	-2627.5	6938.82	-2370	6938.82	-6100	6938.82	-2742.5
6938.821	-2865	6938.821	-2847.5	6938.821	-2522.5	6938.821	-6270	6938.821	-2947.5
6938.822	-3007.5	6938.822	-2952.5	6938.822	-2652.5	6938.822	-6397.5	6938.822	-2972.5
6938.823	-3122.5	6938.823	-3312.5	6938.823	-2822.5	6938.823	-6547.5	6938.823	-3200
6938.824	-3335	6938.824	-3400	6938.824	-2937.5	6938.824	-6610	6938.824	-3240
6938.825	-3377.5	6938.825	-3507.5	6938.825	-3050	6938.825	-6715	6938.825	-3357.5
6938.826	-3405	6938.826	-3595	6938.826	-3157.5	6938.826	-6735	6938.826	-3427.5
6938.827	-3505	6938.827	-3657.5	6938.827	-3325	6938.827	-6827.5	6938.827	-3587.5
6938.828	-3647.5	6938.828	-3672.5	6938.828	-3420	6938.828	-6847.5	6938.828	-3650
6938.829	-3720	6938.829	-3790	6938.829	-3510	6938.829	-6912.5	6938.829	-3725
6938.83	-3750	6938.83	-3832.5	6938.83	-3597.5	6938.83	-6935	6938.83	-3782.5
6938.831	-3887.5	6938.831	-3920	6938.831	-3710	6938.831	-7007.5	6938.831	-3875
6938.832	-3960	6938.832	-3995	6938.832	-3870	6938.832	-7055	6938.832	-3990
6938.833	-4007.5	6938.833	-4072.5	6938.833	-3972.5	6938.833	-7115	6938.833	-4072.5
6938.834	-4115	6938.834	-4162.5	6938.834	-4060	6938.834	-7195	6938.834	-4165
6938.835	-4317.5	6938.835	-4357.5	6938.835	-4172.5	6938.835	-7197.5	6938.835	-4245
6938.836	-4415	6938.836	-4537.5	6938.836	-4227.5	6938.836	-7322.5	6938.836	-4295
6938.837	-4572.5	6938.837	-4680	6938.837	-4345	6938.837	-7447.5	6938.837	-4390
6938.838	-4817.5	6938.838	-4940	6938.838	-4452.5	6938.838	-7560	6938.838	-4515
6938.839	-4935	6938.839	-5135	6938.839	-4535	6938.839	-7617.5	6938.839	-4555
6938.84	-5132.5	6938.84	-5332.5	6938.84	-4615	6938.84	-7682.5	6938.84	-4647.5
6938.841	-5275	6938.841	-5437.5	6938.841	-4745	6938.841	-7795	6938.841	-4735
6938.842	-5362.5	6938.842	-5520	6938.842	-4770	6938.842	-7845	6938.842	-4752.5
6938.843	-5362.5	6938.843	-5692.5	6938.843	-4847.5	6938.843	-7865	6938.843	-4750
6938.844	-5552.5	6938.844	-5747.5	6938.844	-4845	6938.844	-7840	6938.844	-4790
6938.845	-5532.5	6938.845	-5755	6938.845	-4907.5	6938.845	-7845	6938.845	-4827.5
6938.846	-5527.5	6938.846	-5725	6938.846	-4925	6938.846	-7862.5	6938.846	-4815
6938.847	-5517.5	6938.847	-5782.5	6938.847	-4972.5	6938.847	-7745	6938.847	-4847.5
6938.848	-5540	6938.848	-5680	6938.848	-5025	6938.848	-7695	6938.848	-4875
6938.849	-5535	6938.849	-5717.5	6938.849	-5022.5	6938.849	-7765	6938.849	-4845
6938.85	-5512.5	6938.85	-5742.5	6938.85	-5112.5	6938.85	-7697.5	6938.85	-4902.5
6938.851	-5530	6938.851	-5635	6938.851	-5072.5	6938.851	-7587.5	6938.851	-4822.5
6938.852	-5505	6938.852	-5717.5	6938.852	-5140	6938.852	-7612.5	6938.852	-4905
6938.853	-5547.5	6938.853	-5690	6938.853	-5175	6938.853	-7557.5	6938.853	-4937.5
6938.854	-5545	6938.854	-5720	6938.854	-5177.5	6938.854	-7580	6938.854	-4890
6938.855	-5695	6938.855	-5802.5	6938.855	-5195	6938.855	-7592.5	6938.855	-4890
6938.856	-5727.5	6938.856	-5935	6938.856	-5235	6938.856	-7550	6938.856	-4907.5
6938.857	-5842.5	6938.857	-6035	6938.857	-5295	6938.857	-7577.5	6938.857	-4945
6938.858	-5932.5	6938.858	-6162.5	6938.858	-5277.5	6938.858	-7655	6938.858	-4927.5
6938.859	-6037.5	6938.859	-6202.5	6938.859	-5315	6938.859	-7642.5	6938.859	-4945
6938.86	-6132.5	6938.86	-6387.5	6938.86	-5357.5	6938.86	-7725	6938.86	-4982.5
6938.861	-6195	6938.861	-6447.5	6938.861	-5345	6938.861	-7682.5	6938.861	-4967.5
6938.862	-6172.5	6938.862	-6495	6938.862	-5347.5	6938.862	-7665	6938.862	-4895
6938.863	-6245	6938.863	-6560	6938.863	-5352.5	6938.863	-7607.5	6938.863	-4967.5
6938.864	-6170	6938.864	-6585	6938.864	-5362.5	6938.864	-7610	6938.864	-4910
6938.865	-6242.5	6938.865	-6560	6938.865	-5337.5	6938.865	-7525	6938.865	-4885
6938.866	-6095	6938.866	-6457.5	6938.866	-5315	6938.866	-7417.5	6938.866	-4840
6938.867	-6015	6938.867	-6352.5	6938.867	-5320	6938.867	-7382.5	6938.867	-4832.5
6938.868	-5920	6938.868	-6210	6938.868	-5322.5	6938.868	-7260	6938.868	-4800
6938.869	-6020	6938.869	-6185	6938.869	-5270	6938.869	-7165	6938.869	-4750
6938.87	-5932.5	6938.87	-6117.5	6938.87	-5285	6938.87	-7122.5	6938.87	-4707.5
6938.871	-5837.5	6938.871	-6057.5	6938.871	-5272.5	6938.871	-7062.5	6938.871	-4677.5
6938.872	-5792.5	6938.872	-6000	6938.872	-5257.5	6938.872	-7032.5	6938.872	-4675
6938.873	-5892.5	6938.873	-5947.5	6938.873	-5292.5	6938.873	-6925	6938.873	-4637.5
6938.874	-5840	6938.874	-6040	6938.874	-5247.5	6938.874	-6897.5	6938.874	-4605
6938.875	-5942.5	6938.875	-6057.5	6938.875	-5290	6938.875	-6915	6938.875	-4645
6938.876	-5985	6938.876	-6135	6938.876	-5272.5	6938.876	-6835	6938.876	-4592.5
6938.877	-6005	6938.877	-6130	6938.877	-5282.5	6938.877	-6880	6938.877	-4577.5
6938.878	-6102.5	6938.878	-6257.5	6938.878	-5287.5	6938.878	-6907.5	6938.878	-4595
6938.879	-6195	6938.879	-6350	6938.879	-5277.5	6938.879	-6895	6938.879	-4560
6938.88	-6175	6938.88	-6497.5	6938.88	-5265	6938.88	-6990	6938.88	-4567.5
6938.881	-6207.5	6938.881	-6557.5	6938.881	-5267.5	6938.881	-6927.5	6938.881	-4552.5
6938.882	-6245	6938.882	-6560	6938.882	-5257.5	6938.882	-6880	6938.882	-4525
6938.883	-6160	6938.883	-6500	6938.883	-5262.5	6938.883	-6845	6938.883	-4515
6938.884	-6142.5	6938.884	-6522.5	6938.884	-5247.5	6938.884	-6790	6938.884	-4445
6938.885	-6102.5	6938.885	-6485	6938.885	-5185	6938.885	-6772.5	6938.885	-4392.5
6938.886	-5977.5	6938.886	-6280	6938.886	-5167.5	6938.886	-6602.5	6938.886	-4352.5
6938.887	-6022.5	6938.887	-6312.5	6938.887	-5112.5	6938.887	-6530	6938.887	-4290
6938.888	-5950	6938.888	-6117.5	6938.888	-5112.5	6938.888	-6395	6938.888	-4285
6938.889	-5865	6938.889	-6092.5	6938.889	-5107.5	6938.889	-6387.5	6938.889	-4237.5
6938.89	-5762.5	6938.89	-5915	6938.89	-5070	6938.89	-6287.5	6938.89	-4177.5
6938.891	-5687.5	6938.891	-5847.5	6938.891	-5082.5	6938.891	-6217.5	6938.891	-4172.5
6938.892	-5732.5	6938.892	-5800	6938.892	-5052.5	6938.892	-6092.5	6938.892	-4162.5
6938.893	-5640	6938.893	-5765	6938.893	-5050	6938.893	-6027.5	6938.893	-4122.5
6938.894	-5580	6938.894	-5752.5	6938.894	-5012.5	6938.894	-6027.5	6938.894	-4107.5
6938.895	-5665	6938.895	-5772.5	6938.895	-5015	6938.895	-6012.5	6938.895	-4125
6938.896	-5770	6938.896	-5827.5	6938.896	-5010	6938.896	-6017.5	6938.896	-4062.5
6938.897	-5615	6938.897	-5915	6938.897	-5035	6938.897	-6057.5	6938.897	-4137.5
6938.898	-5790	6938.898	-6002.5	6938.898	-4975	6938.898	-6030	6938.898	-4037.5
6938.899	-5730	6938.899	-6095	6938.899	-4997.5	6938.899	-6055	6938.899	-4062.5
6938.9	-5935	6938.9	-6167.5	6938.9	-4997.5	6938.9	-6015	6938.9	-4075
6938.901	-5915	6938.901	-6247.5	6938.901	-5020	6938.901	-6057.5	6938.901	-4027.5
6938.902	-5735	6938.902	-6225	6938.902	-4962.5	6938.902	-5985	6938.902	-4007.5
6938.903	-5862.5	6938.903	-6277.5	6938.903	-4962.5	6938.903	-6037.5	6938.903	-3992.5
6938.904	-5792.5	6938.904	-6175	6938.904	-4917.5	6938.904	-5942.5	6938.904	-4000
6938.905	-5767.5	6938.905	-6097.5	6938.905	-4877.5	6938.905	-5897.5	6938.905	-3865
6938.906	-5627.5	6938.906	-5955	6938.906	-4902.5	6938.906	-5747.5	6938.906	-3872.5
6938.907	-5547.5	6938.907	-5885	6938.907	-4847.5	6938.907	-5642.5	6938.907	-3825
6938.908	-5457.5	6938.908	-5812.5	6938.908	-4795	6938.908	-5512.5	6938.908	-3787.5
6938.909	-5452.5	6938.909	-5672.5	6938.909	-4795	6938.909	-5512.5	6938.909	-3775
6938.91	-5262.5	6938.91	-5525	6938.91	-4717.5	6938.91	-5385	6938.91	-3677.5
6938.911	-5270	6938.911	-5435	6938.911	-4755	6938.911	-5282.5	6938.911	-3700
6938.912	-5230	6938.912	-5490	6938.912	-4732.5	6938.912	-5262.5	6938.912	-3655
6938.913	-5192.5	6938.913	-5377.5	6938.913	-4682.5	6938.913	-5220	6938.913	-3622.5
6938.914	-5215	6938.914	-5360	6938.914	-4692.5	6938.914	-5187.5	6938.914	-3607.5
6938.915	-5282.5	6938.915	-5457.5	6938.915	-4695	6938.915	-5132.5	6938.915	-3615
6938.916	-5245	6938.916	-5462.5	6938.916	-4687.5	6938.916	-5202.5	6938.916	-3620
6938.917	-5242.5	6938.917	-5457.5	6938.917	-4650	6938.917	-5170	6938.917	-3547.5
6938.918	-5337.5	6938.918	-5600	6938.918	-4702.5	6938.918	-5190	6938.918	-3570
6938.919	-5297.5	6938.919	-5702.5	6938.919	-4662.5	6938.919	-5170	6938.919	-3567.5
6938.92	-5392.5	6938.92	-5790	6938.92	-4647.5	6938.92	-5207.5	6938.92	-3562.5
6938.921	-5395	6938.921	-5812.5	6938.921	-4632.5	6938.921	-5185	6938.921	-3545
6938.922	-5457.5	6938.922	-5807.5	6938.922	-4595	6938.922	-5210	6938.922	-3465
6938.923	-5470	6938.923	-5907.5	6938.923	-4622.5	6938.923	-5195	6938.923	-3495
6938.924	-5442.5	6938.924	-5830	6938.924	-4580	6938.924	-5092.5	6938.924	-3467.5
6938.925	-5355	6938.925	-5735	6938.925	-4557.5	6938.925	-5070	6938.925	-3415
6938.926	-5287.5	6938.926	-5637.5	6938.926	-4527.5	6938.926	-4952.5	6938.926	-3355
6938.927	-5297.5	6938.927	-5535	6938.927	-4495	6938.927	-4877.5	6938.927	-3312.5
6938.928	-5030	6938.928	-5362.5	6938.928	-4435	6938.928	-4802.5	6938.928	-3232.5
6938.929	-5057.5	6938.929	-5267.5	6938.929	-4435	6938.929	-4720	6938.929	-3247.5
6938.93	-4982.5	6938.93	-5105	6938.93	-4402.5	6938.93	-4587.5	6938.93	-3187.5
6938.931	-4880	6938.931	-5027.5	6938.931	-4350	6938.931	-4552.5	6938.931	-3115
6938.932	-4920	6938.932	-5012.5	6938.932	-4370	6938.932	-4482.5	6938.932	-3130
6938.933	-4865	6938.933	-4932.5	6938.933	-4372.5	6938.933	-4422.5	6938.933	-3135
6938.934	-4882.5	6938.934	-4965	6938.934	-4332.5	6938.934	-4387.5	6938.934	-3075
6938.935	-4895	6938.935	-5005	6938.935	-4307.5	6938.935	-4387.5	6938.935	-3077.5
6938.936	-4967.5	6938.936	-5065	6938.936	-4347.5	6938.936	-4385	6938.936	-3097.5
6938.937	-5017.5	6938.937	-5112.5	6938.937	-4330	6938.937	-4335	6938.937	-3075
6938.938	-5072.5	6938.938	-5202.5	6938.938	-4315	6938.938	-4422.5	6938.938	-3062.5
6938.939	-5025	6938.939	-5285	6938.939	-4262.5	6938.939	-4350	6938.939	-3007.5
6938.94	-5075	6938.94	-5367.5	6938.94	-4280	6938.94	-4392.5	6938.94	-3037.5
6938.941	-5077.5	6938.941	-5380	6938.941	-4272.5	6938.941	-4402.5	6938.941	-3007.5
6938.942	-5147.5	6938.942	-5392.5	6938.942	-4227.5	6938.942	-4385	6938.942	-2977.5
6938.943	-5140	6938.943	-5402.5	6938.943	-4230	6938.943	-4390	6938.943	-2965
6938.944	-5130	6938.944	-5382.5	6938.944	-4175	6938.944	-4267.5	6938.944	-2905
6938.945	-5087.5	6938.945	-5340	6938.945	-4152.5	6938.945	-4242.5	6938.945	-2837.5
6938.946	-4990	6938.946	-5252.5	6938.946	-4122.5	6938.946	-4140	6938.946	-2840
6938.947	-4900	6938.947	-5150	6938.947	-4087.5	6938.947	-4125	6938.947	-2780
6938.948	-4742.5	6938.948	-5007.5	6938.948	-4030	6938.948	-3957.5	6938.948	-2737.5
6938.949	-4750	6938.949	-4952.5	6938.949	-3997.5	6938.949	-3892.5	6938.949	-2682.5
6938.95	-4700	6938.95	-4812.5	6938.95	-3982.5	6938.95	-3720	6938.95	-2625
6938.951	-4647.5	6938.951	-4772.5	6938.951	-3947.5	6938.951	-3677.5	6938.951	-2585
6938.952	-4572.5	6938.952	-4680	6938.952	-3927.5	6938.952	-3582.5	6938.952	-2547.5
6938.953	-4512.5	6938.953	-4632.5	6938.953	-3915	6938.953	-3520	6938.953	-2485
6938.954	-4557.5	6938.954	-4642.5	6938.954	-3875	6938.954	-3495	6938.954	-2445
6938.955	-4530	6938.955	-4672.5	6938.955	-3867.5	6938.955	-3457.5	6938.955	-2487.5
6938.956	-4557.5	6938.956	-4702.5	6938.956	-3855	6938.956	-3455	6938.956	-2447.5
6938.957	-4607.5	6938.957	-4760	6938.957	-3825	6938.957	-3405	6938.957	-2420
6938.958	-4585	6938.958	-4890	6938.958	-3805	6938.958	-3492.5	6938.958	-2425
6938.959	-4635	6938.959	-4905	6938.959	-3790	6938.959	-3472.5	6938.959	-2405
6938.96	-4760	6938.96	-5027.5	6938.96	-3787.5	6938.96	-3462.5	6938.96	-2400
6938.961	-4720	6938.961	-5057.5	6938.961	-3732.5	6938.961	-3460	6938.961	-2310
6938.962	-4735	6938.962	-5025	6938.962	-3732.5	6938.962	-3397.5	6938.962	-2320
6938.963	-4742.5	6938.963	-5115	6938.963	-3695	6938.963	-3362.5	6938.963	-2287.5
6938.964	-4757.5	6938.964	-5057.5	6938.964	-3635	6938.964	-3277.5	6938.964	-2260
6938.965	-4602.5	6938.965	-4975	6938.965	-3610	6938.965	-3222.5	6938.965	-2215
6938.966	-4632.5	6938.966	-4817.5	6938.966	-3580	6938.966	-3132.5	6938.966	-2175
6938.967	-4540	6938.967	-4785	6938.967	-3535	6938.967	-2990	6938.967	-2135
6938.968	-4442.5	6938.968	-4682.5	6938.968	-3505	6938.968	-2927.5	6938.968	-2072.5
6938.969	-4330	6938.969	-4527.5	6938.969	-3450	6938.969	-2840	6938.969	-2037.5
6938.97	-4250	6938.97	-4417.5	6938.97	-3425	6938.97	-2737.5	6938.97	-1967.5
6938.971	-4132.5	6938.971	-4305	6938.971	-3387.5	6938.971	-2605	6938.971	-1890
6938.972	-4225	6938.972	-4312.5	6938.972	-3367.5	6938.972	-2547.5	6938.972	-1870
6938.973	-4145	6938.973	-4175	6938.973	-3310	6938.973	-2497.5	6938.973	-1797.5
6938.974	-4105	6938.974	-4150	6938.974	-3285	6938.974	-2370	6938.974	-1787.5
6938.975	-4135	6938.975	-4170	6938.975	-3260	6938.975	-2335	6938.975	-1815
6938.976	-4215	6938.976	-4257.5	6938.976	-3245	6938.976	-2280	6938.976	-1760
6938.977	-4180	6938.977	-4272.5	6938.977	-3182.5	6938.977	-2207.5	6938.977	-1680
6938.978	-4337.5	6938.978	-4330	6938.978	-3182.5	6938.978	-2247.5	6938.978	-1690
6938.979	-4297.5	6938.979	-4425	6938.979	-3162.5	6938.979	-2172.5	6938.979	-1662.5
6938.98	-4435	6938.98	-4535	6938.98	-3110	6938.98	-2192.5	6938.98	-1627.5
6938.981	-4495	6938.981	-4562.5	6938.981	-3112.5	6938.981	-2185	6938.981	-1612.5
6938.982	-4417.5	6938.982	-4550	6938.982	-3072.5	6938.982	-2167.5	6938.982	-1555
6938.983	-4417.5	6938.983	-4670	6938.983	-3037.5	6938.983	-2102.5	6938.983	-1527.5
6938.984	-4390	6938.984	-4530	6938.984	-2997.5	6938.984	-2027.5	6938.984	-1505
6938.985	-4285	6938.985	-4475	6938.985	-2975	6938.985	-2015	6938.985	-1472.5
6938.986	-4265	6938.986	-4370	6938.986	-2957.5	6938.986	-1825	6938.986	-1420
6938.987	-4117.5	6938.987	-4260	6938.987	-2872.5	6938.987	-1792.5	6938.987	-1355
6938.988	-4037.5	6938.988	-4112.5	6938.988	-2842.5	6938.988	-1660	6938.988	-1287.5
6938.989	-4077.5	6938.989	-4030	6938.989	-2827.5	6938.989	-1625	6938.989	-1240
6938.99	-3887.5	6938.99	-3930	6938.99	-2752.5	6938.99	-1440	6938.99	-1180
6938.991	-3762.5	6938.991	-3775	6938.991	-2722.5	6938.991	-1355	6938.991	-1127.5
6938.992	-3715	6938.992	-3762.5	6938.992	-2677.5	6938.992	-1275	6938.992	-1147.5
6938.993	-3700	6938.993	-3682.5	6938.993	-2667.5	6938.993	-1172.5	6938.993	-1050
6938.994	-3635	6938.994	-3640	6938.994	-2662.5	6938.994	-1165	6938.994	-1082.5
6938.995	-3685	6938.995	-3647.5	6938.995	-2627.5	6938.995	-1147.5	6938.995	-1050
6938.996	-3742.5	6938.996	-3795	6938.996	-2592.5	6938.996	-1100	6938.996	-1022.5
6938.997	-3722.5	6938.997	-3770	6938.997	-2585	6938.997	-1047.5	6938.997	-980
6938.998	-3827.5	6938.998	-3855	6938.998	-2550	6938.998	-1000	6938.998	-985
6938.999	-3890	6938.999	-3950	6938.999	-2557.5	6938.999	-962.5	6938.999	-1007.5
6939	-3875	6939	-3975	6939	-2562.5	6939	-962.5	6939	-1032.5
6939.001	-3830	6939.001	-4090	6939.001	-2547.5	6939.001	-995	6939.001	-995
6939.002	-3865	6939.002	-4095	6939.002	-2492.5	6939.002	-860	6939.002	-970
6939.003	-3850	6939.003	-4102.5	6939.003	-2507.5	6939.003	-842.5	6939.003	-977.5
6939.004	-3790	6939.004	-4062.5	6939.004	-2475	6939.004	-757.5	6939.004	-952.5
6939.005	-3755	6939.005	-4002.5	6939.005	-2472.5	6939.005	-715	6939.005	-942.5
6939.006	-3775	6939.006	-3842.5	6939.006	-2430	6939.006	-565	6939.006	-870
6939.007	-3607.5	6939.007	-3807.5	6939.007	-2400	6939.007	-452.5	6939.007	-847.5
6939.008	-3572.5	6939.008	-3712.5	6939.008	-2357.5	6939.008	-367.5	6939.008	-815
6939.009	-3510	6939.009	-3630	6939.009	-2355	6939.009	-312.5	6939.009	-827.5
6939.01	-3390	6939.01	-3482.5	6939.01	-2315	6939.01	-160	6939.01	-775
6939.011	-3372.5	6939.011	-3332.5	6939.011	-2262.5	6939.011	-70	6939.011	-720
6939.012	-3340	6939.012	-3342.5	6939.012	-2282.5	6939.012	-92.5	6939.012	-727.5
6939.013	-3245	6939.013	-3262.5	6939.013	-2232.5	6939.013	-20	6939.013	-720
6939.014	-3280	6939.014	-3245	6939.014	-2257.5	6939.014	57.5	6939.014	-745
6939.015	-3410	6939.015	-3210	6939.015	-2262.5	6939.015	85	6939.015	-742.5
6939.016	-3367.5	6939.016	-3282.5	6939.016	-2212.5	6939.016	112.5	6939.016	-715
6939.017	-3327.5	6939.017	-3302.5	6939.017	-2212.5	6939.017	132.5	6939.017	-710
6939.018	-3572.5	6939.018	-3420	6939.018	-2237.5	6939.018	85	6939.018	-730
6939.019	-3547.5	6939.019	-3505	6939.019	-2235	6939.019	95	6939.019	-757.5
6939.02	-3600	6939.02	-3620	6939.02	-2217.5	6939.02	130	6939.02	-792.5
6939.021	-3620	6939.021	-3672.5	6939.021	-2207.5	6939.021	67.5	6939.021	-800
6939.022	-3582.5	6939.022	-3610	6939.022	-2160	6939.022	182.5	6939.022	-732.5
6939.023	-3620	6939.023	-3690	6939.023	-2202.5	6939.023	170	6939.023	-732.5
6939.024	-3610	6939.024	-3620	6939.024	-2165	6939.024	217.5	6939.024	-702.5
6939.025	-3592.5	6939.025	-3610	6939.025	-2162.5	6939.025	202.5	6939.025	-745
6939.026	-3552.5	6939.026	-3527.5	6939.026	-2120	6939.026	320	6939.026	-677.5
6939.027	-3550	6939.027	-3440	6939.027	-2075	6939.027	435	6939.027	-660
6939.028	-3360	6939.028	-3267.5	6939.028	-2075	6939.028	510	6939.028	-627.5
6939.029	-3360	6939.029	-3230	6939.029	-2042.5	6939.029	605	6939.029	-630
6939.03	-3207.5	6939.03	-3062.5	6939.03	-2050	6939.03	677.5	6939.03	-667.5
6939.031	-3137.5	6939.031	-3045	6939.031	-1995	6939.031	705	6939.031	-617.5
6939.032	-3190	6939.032	-2955	6939.032	-2007.5	6939.032	755	6939.032	-600
6939.033	-3090	6939.033	-2837.5	6939.033	-2007.5	6939.033	817.5	6939.033	-660
6939.034	-3152.5	6939.034	-2857.5	6939.034	-1977.5	6939.034	847.5	6939.034	-620
6939.035	-3152.5	6939.035	-2965	6939.035	-2015	6939.035	772.5	6939.035	-662.5
6939.036	-3205	6939.036	-3035	6939.036	-2007.5	6939.036	787.5	6939.036	-722.5
6939.037	-3207.5	6939.037	-3052.5	6939.037	-1997.5	6939.037	817.5	6939.037	-695
6939.038	-3292.5	6939.038	-3200	6939.038	-1997.5	6939.038	767.5	6939.038	-692.5
6939.039	-3257.5	6939.039	-3170	6939.039	-1960	6939.039	762.5	6939.039	-695
6939.04	-3312.5	6939.04	-3325	6939.04	-1965	6939.04	735	6939.04	-725
6939.041	-3332.5	6939.041	-3325	6939.041	-1967.5	6939.041	697.5	6939.041	-757.5
6939.042	-3365	6939.042	-3397.5	6939.042	-1962.5	6939.042	695	6939.042	-745
6939.043	-3387.5	6939.043	-3367.5	6939.043	-1965	6939.043	712.5	6939.043	-735
6939.044	-3317.5	6939.044	-3370	6939.044	-1922.5	6939.044	732.5	6939.044	-707.5
6939.045	-3202.5	6939.045	-3307.5	6939.045	-1877.5	6939.045	810	6939.045	-690
6939.046	-3215	6939.046	-3172.5	6939.046	-1872.5	6939.046	840	6939.046	-705
6939.047	-3120	6939.047	-3057.5	6939.047	-1882.5	6939.047	920	6939.047	-707.5
6939.048	-3140	6939.048	-2970	6939.048	-1865	6939.048	967.5	6939.048	-700
6939.049	-3017.5	6939.049	-2845	6939.049	-1840	6939.049	990	6939.049	-665
6939.05	-2887.5	6939.05	-2737.5	6939.05	-1825	6939.05	1092.5	6939.05	-702.5
6939.051	-2850	6939.051	-2612.5	6939.051	-1815	6939.051	1175	6939.051	-712.5
6939.052	-2892.5	6939.052	-2570	6939.052	-1792.5	6939.052	1152.5	6939.052	-687.5
6939.053	-2825	6939.053	-2570	6939.053	-1777.5	6939.053	1220	6939.053	-695
6939.054	-2755	6939.054	-2512.5	6939.054	-1742.5	6939.054	1202.5	6939.054	-682.5
6939.055	-2752.5	6939.055	-2485	6939.055	-1777.5	6939.055	1175	6939.055	-772.5
6939.056	-2825	6939.056	-2627.5	6939.056	-1755	6939.056	1147.5	6939.056	-715
6939.057	-2905	6939.057	-2675	6939.057	-1772.5	6939.057	1122.5	6939.057	-760
6939.058	-2982.5	6939.058	-2745	6939.058	-1725	6939.058	1072.5	6939.058	-770
6939.059	-2967.5	6939.059	-2830	6939.059	-1767.5	6939.059	1017.5	6939.059	-810
6939.06	-3012.5	6939.06	-2922.5	6939.06	-1717.5	6939.06	942.5	6939.06	-787.5
6939.061	-3065	6939.061	-2967.5	6939.061	-1727.5	6939.061	920	6939.061	-880
6939.062	-2927.5	6939.062	-2927.5	6939.062	-1690	6939.062	907.5	6939.062	-810
6939.063	-2915	6939.063	-2945	6939.063	-1692.5	6939.063	842.5	6939.063	-817.5
6939.064	-2977.5	6939.064	-2902.5	6939.064	-1667.5	6939.064	875	6939.064	-850
6939.065	-2917.5	6939.065	-2855	6939.065	-1660	6939.065	922.5	6939.065	-832.5
6939.066	-2790	6939.066	-2750	6939.066	-1600	6939.066	982.5	6939.066	-817.5
6939.067	-2692.5	6939.067	-2517.5	6939.067	-1577.5	6939.067	1055	6939.067	-815
6939.068	-2717.5	6939.068	-2420	6939.068	-1545	6939.068	1140	6939.068	-780
6939.069	-2602.5	6939.069	-2377.5	6939.069	-1522.5	6939.069	1135	6939.069	-805
6939.07	-2542.5	6939.07	-2235	6939.07	-1522.5	6939.07	1170	6939.07	-780
6939.071	-2442.5	6939.071	-2065	6939.071	-1482.5	6939.071	1215	6939.071	-750
6939.072	-2492.5	6939.072	-2105	6939.072	-1455	6939.072	1265	6939.072	-787.5
6939.073	-2430	6939.073	-1985	6939.073	-1425	6939.073	1250	6939.073	-740
6939.074	-2377.5	6939.074	-2025	6939.074	-1432.5	6939.074	1255	6939.074	-765
6939.075	-2422.5	6939.075	-2020	6939.075	-1445	6939.075	1227.5	6939.075	-802.5
6939.076	-2540	6939.076	-2130	6939.076	-1407.5	6939.076	1177.5	6939.076	-782.5
6939.077	-2492.5	6939.077	-2122.5	6939.077	-1372.5	6939.077	1152.5	6939.077	-792.5
6939.078	-2480	6939.078	-2137.5	6939.078	-1412.5	6939.078	1090	6939.078	-822.5
6939.079	-2575	6939.079	-2175	6939.079	-1372.5	6939.079	1030	6939.079	-822.5
6939.08	-2650	6939.08	-2337.5	6939.08	-1405	6939.08	997.5	6939.08	-875
6939.081	-2600	6939.081	-2360	6939.081	-1360	6939.081	895	6939.081	-910
6939.082	-2565	6939.082	-2390	6939.082	-1357.5	6939.082	897.5	6939.082	-877.5
6939.083	-2622.5	6939.083	-2410	6939.083	-1340	6939.083	837.5	6939.083	-902.5
6939.084	-2617.5	6939.084	-2370	6939.084	-1337.5	6939.084	905	6939.084	-867.5
6939.085	-2585	6939.085	-2262.5	6939.085	-1297.5	6939.085	960	6939.085	-862.5
6939.086	-2485	6939.086	-2147.5	6939.086	-1240	6939.086	1015	6939.086	-807.5
6939.087	-2445	6939.087	-2082.5	6939.087	-1250	6939.087	1032.5	6939.087	-830
6939.088	-2325	6939.088	-1932.5	6939.088	-1250	6939.088	1055	6939.088	-805
6939.089	-2280	6939.089	-1807.5	6939.089	-1190	6939.089	1097.5	6939.089	-795
6939.09	-2087.5	6939.09	-1730	6939.09	-1165	6939.09	1160	6939.09	-757.5
6939.091	-2192.5	6939.091	-1680	6939.091	-1165	6939.091	1197.5	6939.091	-820
6939.092	-2050	6939.092	-1620	6939.092	-1125	6939.092	1172.5	6939.092	-787.5
6939.093	-2045	6939.093	-1535	6939.093	-1125	6939.093	1210	6939.093	-782.5
6939.094	-1992.5	6939.094	-1542.5	6939.094	-1100	6939.094	1200	6939.094	-750
6939.095	-2040	6939.095	-1615	6939.095	-1120	6939.095	1125	6939.095	-830
6939.096	-1950	6939.096	-1592.5	6939.096	-1130	6939.096	1095	6939.096	-820
6939.097	-2037.5	6939.097	-1622.5	6939.097	-1092.5	6939.097	1062.5	6939.097	-805
6939.098	-2165	6939.098	-1712.5	6939.098	-1092.5	6939.098	980	6939.098	-827.5
6939.099	-2075	6939.099	-1737.5	6939.099	-1090	6939.099	950	6939.099	-837.5
6939.1	-2090	6939.1	-1845	6939.1	-1065	6939.1	930	6939.1	-832.5
6939.101	-2165	6939.101	-1937.5	6939.101	-1087.5	6939.101	855	6939.101	-895
6939.102	-2162.5	6939.102	-1882.5	6939.102	-1047.5	6939.102	817.5	6939.102	-872.5
6939.103	-2177.5	6939.103	-1910	6939.103	-1017.5	6939.103	847.5	6939.103	-862.5
6939.104	-2055	6939.104	-1845	6939.104	-1012.5	6939.104	862.5	6939.104	-825
6939.105	-2080	6939.105	-1795	6939.105	-990	6939.105	845	6939.105	-817.5
6939.106	-1927.5	6939.106	-1752.5	6939.106	-947.5	6939.106	865	6939.106	-795
6939.107	-1867.5	6939.107	-1635	6939.107	-930	6939.107	947.5	6939.107	-797.5
6939.108	-1775	6939.108	-1495	6939.108	-880	6939.108	1030	6939.108	-732.5
6939.109	-1792.5	6939.109	-1367.5	6939.109	-870	6939.109	1042.5	6939.109	-725
6939.11	-1655	6939.11	-1252.5	6939.11	-837.5	6939.11	1122.5	6939.11	-745
6939.111	-1595	6939.111	-1132.5	6939.111	-860	6939.111	1075	6939.111	-750
6939.112	-1627.5	6939.112	-1177.5	6939.112	-907.5	6939.112	1132.5	6939.112	-777.5
6939.113	-1540	6939.113	-1032.5	6939.113	-867.5	6939.113	1167.5	6939.113	-762.5
6939.114	-1522.5	6939.114	-1032.5	6939.114	-852.5	6939.114	1152.5	6939.114	-795
6939.115	-1570	6939.115	-1040	6939.115	-892.5	6939.115	1100	6939.115	-805
6939.116	-1655	6939.116	-1117.5	6939.116	-935	6939.116	1007.5	6939.116	-855
6939.117	-1592.5	6939.117	-1135	6939.117	-867.5	6939.117	1055	6939.117	-845
6939.118	-1645	6939.118	-1202.5	6939.118	-877.5	6939.118	990	6939.118	-832.5
6939.119	-1757.5	6939.119	-1377.5	6939.119	-897.5	6939.119	880	6939.119	-872.5
6939.12	-1815	6939.12	-1450	6939.12	-907.5	6939.12	870	6939.12	-900
6939.121	-1905	6939.121	-1620	6939.121	-1017.5	6939.121	725	6939.121	-1022.5
6939.122	-1987.5	6939.122	-1650	6939.122	-1047.5	6939.122	637.5	6939.122	-1082.5
6939.123	-1812.5	6939.123	-1555	6939.123	-950	6939.123	735	6939.123	-1002.5
6939.124	-1797.5	6939.124	-1545	6939.124	-922.5	6939.124	742.5	6939.124	-972.5
6939.125	-1935	6939.125	-1610	6939.125	-1045	6939.125	640	6939.125	-1107.5
6939.126	-1832.5	6939.126	-1585	6939.126	-1117.5	6939.126	640	6939.126	-1112.5
6939.127	-1942.5	6939.127	-1635	6939.127	-1217.5	6939.127	552.5	6939.127	-1252.5
6939.128	-2267.5	6939.128	-1935	6939.128	-1677.5	6939.128	177.5	6939.128	-1702.5
6939.129	-2375	6939.129	-2010	6939.129	-1792.5	6939.129	45	6939.129	-1852.5
6939.13	-2607.5	6939.13	-2177.5	6939.13	-2135	6939.13	-147.5	6939.13	-2152.5
6939.131	-3387.5	6939.131	-2952.5	6939.131	-3025	6939.131	-1042.5	6939.131	-3060
6939.132	-3702.5	6939.132	-3167.5	6939.132	-3270	6939.132	-1262.5	6939.132	-3282.5
6939.133	-3602.5	6939.133	-3000	6939.133	-3117.5	6939.133	-1077.5	6939.133	-3127.5
6939.134	-3465	6939.134	-2840	6939.134	-2947.5	6939.134	-947.5	6939.134	-2995
6939.135	-3635	6939.135	-3055	6939.135	-3155	6939.135	-1170	6939.135	-3182.5
6939.136	-3422.5	6939.136	-2870	6939.136	-2830	6939.136	-905	6939.136	-2907.5
6939.137	-3205	6939.137	-2700	6939.137	-2642.5	6939.137	-817.5	6939.137	-2685
6939.138	-3270	6939.138	-2735	6939.138	-2540	6939.138	-760	6939.138	-2632.5
6939.139	-3102.5	6939.139	-2650	6939.139	-2460	6939.139	-650	6939.139	-2557.5
6939.14	-3462.5	6939.14	-2967.5	6939.14	-2747.5	6939.14	-1000	6939.14	-2842.5
6939.141	-3595	6939.141	-3145	6939.141	-2805	6939.141	-1120	6939.141	-2922.5
6939.142	-3087.5	6939.142	-2640	6939.142	-2257.5	6939.142	-597.5	6939.142	-2375
6939.143	-2812.5	6939.143	-2412.5	6939.143	-1857.5	6939.143	-302.5	6939.143	-1962.5
6939.144	-3275	6939.144	-2820	6939.144	-2502.5	6939.144	-802.5	6939.144	-2590
6939.145	-3672.5	6939.145	-3167.5	6939.145	-2825	6939.145	-1145	6939.145	-2932.5
6939.146	-3072.5	6939.146	-2645	6939.146	-2302.5	6939.146	-715	6939.146	-2427.5
6939.147	-2537.5	6939.147	-2030	6939.147	-1700	6939.147	-85	6939.147	-1832.5
6939.148	-1855	6939.148	-1340	6939.148	-1115	6939.148	590	6939.148	-1220
6939.149	-2027.5	6939.149	-1430	6939.149	-1285	6939.149	497.5	6939.149	-1420
6939.15	-2085	6939.15	-1555	6939.15	-1497.5	6939.15	302.5	6939.15	-1607.5
6939.151	-2255	6939.151	-1657.5	6939.151	-1700	6939.151	167.5	6939.151	-1862.5
6939.152	-2360	6939.152	-1720	6939.152	-1852.5	6939.152	150	6939.152	-1960
6939.153	-2420	6939.153	-1720	6939.153	-1875	6939.153	65	6939.153	-2000
6939.154	-2595	6939.154	-1800	6939.154	-1942.5	6939.154	22.5	6939.154	-2055
6939.155	-2582.5	6939.155	-1860	6939.155	-2030	6939.155	-82.5	6939.155	-2165
6939.156	-2772.5	6939.156	-1987.5	6939.156	-2062.5	6939.156	-142.5	6939.156	-2262.5
6939.157	-2810	6939.157	-2037.5	6939.157	-2070	6939.157	-182.5	6939.157	-2262.5
6939.158	-2927.5	6939.158	-2195	6939.158	-2100	6939.158	-295	6939.158	-2267.5
6939.159	-2830	6939.159	-2252.5	6939.159	-2102.5	6939.159	-295	6939.159	-2245
6939.16	-3037.5	6939.16	-2312.5	6939.16	-2125	6939.16	-370	6939.16	-2290
6939.161	-3025	6939.161	-2450	6939.161	-2110	6939.161	-425	6939.161	-2312.5
6939.162	-3037.5	6939.162	-2477.5	6939.162	-2115	6939.162	-445	6939.162	-2317.5
6939.163	-3027.5	6939.163	-2482.5	6939.163	-2142.5	6939.163	-432.5	6939.163	-2307.5
6939.164	-3055	6939.164	-2505	6939.164	-2117.5	6939.164	-385	6939.164	-2292.5
6939.165	-2975	6939.165	-2447.5	6939.165	-2060	6939.165	-412.5	6939.165	-2230
6939.166	-2915	6939.166	-2272.5	6939.166	-1990	6939.166	-222.5	6939.166	-2170
6939.167	-2890	6939.167	-2170	6939.167	-1980	6939.167	-180	6939.167	-2180
6939.168	-2785	6939.168	-2100	6939.168	-1975	6939.168	-70	6939.168	-2202.5
6939.169	-2795	6939.169	-2000	6939.169	-1925	6939.169	-25	6939.169	-2110
6939.17	-2680	6939.17	-1885	6939.17	-1860	6939.17	12.5	6939.17	-2055
6939.171	-2667.5	6939.171	-1785	6939.171	-1805	6939.171	82.5	6939.171	-1990
6939.172	-2590	6939.172	-1657.5	6939.172	-1790	6939.172	110	6939.172	-1982.5
6939.173	-2622.5	6939.173	-1667.5	6939.173	-1772.5	6939.173	197.5	6939.173	-1957.5
6939.174	-2597.5	6939.174	-1647.5	6939.174	-1777.5	6939.174	232.5	6939.174	-1907.5
6939.175	-2692.5	6939.175	-1685	6939.175	-1742.5	6939.175	240	6939.175	-1925
6939.176	-2745	6939.176	-1717.5	6939.176	-1752.5	6939.176	165	6939.176	-1902.5
6939.177	-2877.5	6939.177	-1817.5	6939.177	-1732.5	6939.177	130	6939.177	-1907.5
6939.178	-3010	6939.178	-1952.5	6939.178	-1745	6939.178	42.5	6939.178	-1925
6939.179	-3087.5	6939.179	-2002.5	6939.179	-1760	6939.179	42.5	6939.179	-1910
6939.18	-3212.5	6939.18	-2212.5	6939.18	-1792.5	6939.18	5	6939.18	-1955
6939.181	-3115	6939.181	-2290	6939.181	-1770	6939.181	-85	6939.181	-1935
6939.182	-3162.5	6939.182	-2265	6939.182	-1695	6939.182	-75	6939.182	-1872.5
6939.183	-3085	6939.183	-2320	6939.183	-1655	6939.183	-110	6939.183	-1892.5
6939.184	-3115	6939.184	-2210	6939.184	-1617.5	6939.184	-37.5	6939.184	-1825
6939.185	-2915	6939.185	-2135	6939.185	-1550	6939.185	75	6939.185	-1750
6939.186	-2850	6939.186	-1925	6939.186	-1502.5	6939.186	215	6939.186	-1685
6939.187	-2697.5	6939.187	-1837.5	6939.187	-1420	6939.187	310	6939.187	-1620
6939.188	-2607.5	6939.188	-1652.5	6939.188	-1357.5	6939.188	472.5	6939.188	-1512.5
6939.189	-2590	6939.189	-1457.5	6939.189	-1320	6939.189	602.5	6939.189	-1492.5
6939.19	-2597.5	6939.19	-1392.5	6939.19	-1262.5	6939.19	717.5	6939.19	-1447.5
6939.191	-2462.5	6939.191	-1250	6939.191	-1250	6939.191	830	6939.191	-1435
6939.192	-2485	6939.192	-1165	6939.192	-1202.5	6939.192	897.5	6939.192	-1390
6939.193	-2355	6939.193	-1055	6939.193	-1135	6939.193	1045	6939.193	-1255
6939.194	-2405	6939.194	-1000	6939.194	-1075	6939.194	1122.5	6939.194	-1242.5
6939.195	-2322.5	6939.195	-1010	6939.195	-1055	6939.195	1170	6939.195	-1267.5
6939.196	-2400	6939.196	-950	6939.196	-1007.5	6939.196	1172.5	6939.196	-1215
6939.197	-2480	6939.197	-982.5	6939.197	-987.5	6939.197	1132.5	6939.197	-1180
6939.198	-2475	6939.198	-1100	6939.198	-965	6939.198	1115	6939.198	-1157.5
6939.199	-2660	6939.199	-1200	6939.199	-960	6939.199	1152.5	6939.199	-1157.5
6939.2	-2850	6939.2	-1415	6939.2	-1005	6939.2	1062.5	6939.2	-1150
6939.201	-3217.5	6939.201	-1787.5	6939.201	-1127.5	6939.201	807.5	6939.201	-1240
6939.202	-3537.5	6939.202	-2205	6939.202	-1367.5	6939.202	697.5	6939.202	-1452.5
6939.203	-2727.5	6939.203	-1332.5	6939.203	-110	6939.203	1962.5	6939.203	-82.5
6939.204	-1142.5	6939.204	150	6939.204	1300	6939.204	3582.5	6939.204	1322.5
6939.205	1445	6939.205	2672.5	6939.205	3382.5	6939.205	6202.5	6939.205	3385
6939.206	4312.5	6939.206	5162.5	6939.206	4727.5	6939.206	8292.5	6939.206	4560
6939.207	9605	6939.207	10330	6939.207	9450	6939.207	13355	6939.207	9095
6939.208	15692.5	6939.208	16230	6939.208	15985	6939.208	19627.5	6939.208	15700
6939.209	24652.5	6939.209	25280	6939.209	27270	6939.209	29450	6939.209	27280
6939.21	35015	6939.21	35970	6939.21	40047.5	6939.21	40647.5	6939.21	40362.5
6939.211	43010	6939.211	44792.5	6939.211	49735	6939.211	48982.5	6939.211	50177.5
6939.212	48535	6939.212	51235	6939.212	57430	6939.212	55602.5	6939.212	58067.5
6939.213	53770	6939.213	58112.5	6939.213	65887.5	6939.213	62600	6939.213	66660
6939.214	58065	6939.214	64862.5	6939.214	75570	6939.214	66297.5	6939.214	76807.5
6939.215	57955	6939.215	65455	6939.215	40690	6939.215	45162.5	6939.215	35892.5
6939.216	56657.5	6939.216	64030	6939.216	29637.5	6939.216	45007.5	6939.216	22137.5
6939.217	48730	6939.217	53385	6939.217	23780	6939.217	37297.5	6939.217	17597.5
6939.218	31167.5	6939.218	26117.5	6939.218	4965	6939.218	13612.5	6939.218	1450
6939.219	12482.5	6939.219	11520	6939.219	3715	6939.219	6952.5	6939.219	1067.5
6939.22	7102.5	6939.22	8012.5	6939.22	3587.5	6939.22	6570	6939.22	1532.5
6939.221	6872.5	6939.221	8265	6939.221	5015	6939.221	7355	6939.221	3242.5
6939.222	5725	6939.222	7202.5	6939.222	4545	6939.222	6670	6939.222	3032.5
6939.223	5545	6939.223	7380	6939.223	5267.5	6939.223	6572.5	6939.223	3777.5
6939.224	6680	6939.224	8925	6939.224	6735	6939.224	7545	6939.224	5192.5
6939.225	7807.5	6939.225	10185	6939.225	7790	6939.225	8230	6939.225	6137.5
6939.226	8312.5	6939.226	10697.5	6939.226	7975	6939.226	8385	6939.226	6287.5
6939.227	8892.5	6939.227	11240	6939.227	8250	6939.227	8772.5	6939.227	6547.5
6939.228	9957.5	6939.228	12340	6939.228	9067.5	6939.228	9710	6939.228	7315
6939.229	11590	6939.229	13962.5	6939.229	10432.5	6939.229	11202.5	6939.229	8620
6939.23	13257.5	6939.23	15502.5	6939.23	11687.5	6939.23	12732.5	6939.23	9875
6939.231	14737.5	6939.231	17255	6939.231	13017.5	6939.231	14482.5	6939.231	11232.5
6939.232	16242.5	6939.232	18772.5	6939.232	14332.5	6939.232	16187.5	6939.232	12532.5
6939.233	17482.5	6939.233	20155	6939.233	15660	6939.233	17830	6939.233	13845
6939.234	18580	6939.234	21355	6939.234	16855	6939.234	19325	6939.234	15085
6939.235	19410	6939.235	22265	6939.235	17880	6939.235	20580	6939.235	16127.5
6939.236	19877.5	6939.236	22855	6939.236	18652.5	6939.236	21532.5	6939.236	16980
6939.237	20285	6939.237	23227.5	6939.237	19305	6939.237	22205	6939.237	17650
6939.238	20415	6939.238	23422.5	6939.238	19727.5	6939.238	22682.5	6939.238	18065
6939.239	20502.5	6939.239	23545	6939.239	19972.5	6939.239	22950	6939.239	18365
6939.24	20427.5	6939.24	23467.5	6939.24	20085	6939.24	23037.5	6939.24	18540
6939.241	20210	6939.241	23240	6939.241	20045	6939.241	23025	6939.241	18510
6939.242	19990	6939.242	23040	6939.242	19890	6939.242	22947.5	6939.242	18397.5
6939.243	19677.5	6939.243	22730	6939.243	19660	6939.243	22635	6939.243	18190
6939.244	19372.5	6939.244	22365	6939.244	19385	6939.244	22365	6939.244	17925
6939.245	19007.5	6939.245	22022.5	6939.245	18977.5	6939.245	21925	6939.245	17577.5
6939.246	18570	6939.246	21667.5	6939.246	18605	6939.246	21547.5	6939.246	17202.5
6939.247	18212.5	6939.247	21247.5	6939.247	18160	6939.247	21055	6939.247	16800
6939.248	17660	6939.248	20787.5	6939.248	17717.5	6939.248	20647.5	6939.248	16402.5
6939.249	17165	6939.249	20370	6939.249	17225	6939.249	20150	6939.249	15917.5
6939.25	16715	6939.25	19925	6939.25	16777.5	6939.25	19625	6939.25	15510
6939.251	16162.5	6939.251	19490	6939.251	16265	6939.251	19145	6939.251	15047.5
6939.252	15712.5	6939.252	18970	6939.252	15742.5	6939.252	18567.5	6939.252	14522.5
6939.253	15157.5	6939.253	18480	6939.253	15252.5	6939.253	17982.5	6939.253	14100
6939.254	14582.5	6939.254	17817.5	6939.254	14732.5	6939.254	17470	6939.254	13625
6939.255	14005	6939.255	17367.5	6939.255	14287.5	6939.255	16822.5	6939.255	13165
6939.256	13395	6939.256	16667.5	6939.256	13735	6939.256	16262.5	6939.256	12662.5
6939.257	12867.5	6939.257	16177.5	6939.257	13287.5	6939.257	15650	6939.257	12230
6939.258	12245	6939.258	15535	6939.258	12850	6939.258	15060	6939.258	11820
6939.259	11815	6939.259	15030	6939.259	12390	6939.259	14575	6939.259	11337.5
6939.26	11300	6939.26	14450	6939.26	11912.5	6939.26	13985	6939.26	10922.5
6939.261	10807.5	6939.261	13920	6939.261	11517.5	6939.261	13502.5	6939.261	10515
6939.262	10372.5	6939.262	13442.5	6939.262	11125	6939.262	13012.5	6939.262	10150
6939.263	9890	6939.263	12987.5	6939.263	10727.5	6939.263	12542.5	6939.263	9725
6939.264	9612.5	6939.264	12577.5	6939.264	10372.5	6939.264	12107.5	6939.264	9420
6939.265	9255	6939.265	12185	6939.265	9995	6939.265	11705	6939.265	9042.5
6939.266	8895	6939.266	11862.5	6939.266	9707.5	6939.266	11362.5	6939.266	8832.5
6939.267	8697.5	6939.267	11572.5	6939.267	9365	6939.267	11015	6939.267	8502.5
6939.268	8430	6939.268	11315	6939.268	9067.5	6939.268	10645	6939.268	8220
6939.269	8140	6939.269	11092.5	6939.269	8762.5	6939.269	10282.5	6939.269	7975
6939.27	7875	6939.27	10780	6939.27	8430	6939.27	9945	6939.27	7652.5
6939.271	7560	6939.271	10502.5	6939.271	8157.5	6939.271	9590	6939.271	7415
6939.272	7290	6939.272	10155	6939.272	7845	6939.272	9215	6939.272	7132.5
6939.273	7055	6939.273	9910	6939.273	7560	6939.273	8890	6939.273	6862.5
6939.274	6715	6939.274	9537.5	6939.274	7297.5	6939.274	8387.5	6939.274	6617.5
6939.275	6402.5	6939.275	9147.5	6939.275	6987.5	6939.275	7912.5	6939.275	6347.5
6939.276	6090	6939.276	8705	6939.276	6717.5	6939.276	7327.5	6939.276	6085
6939.277	5745	6939.277	8340	6939.277	6422.5	6939.277	6810	6939.277	5845
6939.278	5367.5	6939.278	7892.5	6939.278	6172.5	6939.278	6255	6939.278	5562.5
6939.279	5097.5	6939.279	7470	6939.279	5907.5	6939.279	5662.5	6939.279	5362.5
6939.28	4810	6939.28	7055	6939.28	5637.5	6939.28	5065	6939.28	5082.5
6939.281	4485	6939.281	6655	6939.281	5375	6939.281	4525	6939.281	4872.5
6939.282	4185	6939.282	6307.5	6939.282	5137.5	6939.282	3992.5	6939.282	4675
6939.283	3845	6939.283	5922.5	6939.283	4850	6939.283	3395	6939.283	4390
6939.284	3672.5	6939.284	5575	6939.284	4582.5	6939.284	2940	6939.284	4210
6939.285	3375	6939.285	5297.5	6939.285	4332.5	6939.285	2417.5	6939.285	3962.5
6939.286	3177.5	6939.286	5160	6939.286	4127.5	6939.286	2062.5	6939.286	3775
6939.287	3072.5	6939.287	4895	6939.287	3917.5	6939.287	1702.5	6939.287	3542.5
6939.288	2872.5	6939.288	4700	6939.288	3650	6939.288	1270	6939.288	3345
6939.289	2572.5	6939.289	4457.5	6939.289	3402.5	6939.289	872.5	6939.289	3157.5
6939.29	2350	6939.29	4207.5	6939.29	3155	6939.29	582.5	6939.29	2957.5
6939.291	2220	6939.291	3957.5	6939.291	2932.5	6939.291	217.5	6939.291	2687.5
6939.292	1975	6939.292	3707.5	6939.292	2652.5	6939.292	-167.5	6939.292	2492.5
6939.293	1795	6939.293	3457.5	6939.293	2420	6939.293	-507.5	6939.293	2265
6939.294	1457.5	6939.294	3135	6939.294	2190	6939.294	-872.5	6939.294	2087.5
6939.295	1202.5	6939.295	2777.5	6939.295	1932.5	6939.295	-1200	6939.295	1800
6939.296	937.5	6939.296	2462.5	6939.296	1670	6939.296	-1557.5	6939.296	1570
6939.297	707.5	6939.297	2047.5	6939.297	1437.5	6939.297	-1960	6939.297	1365
6939.298	405	6939.298	1702.5	6939.298	1172.5	6939.298	-2292.5	6939.298	1102.5
6939.299	97.5	6939.299	1252.5	6939.299	932.5	6939.299	-2725	6939.299	887.5
6939.3	-240	6939.3	890	6939.3	690	6939.3	-2990	6939.3	630
6939.301	-460	6939.301	527.5	6939.301	432.5	6939.301	-3362.5	6939.301	422.5
6939.302	-625	6939.302	280	6939.302	220	6939.302	-3655	6939.302	212.5
6939.303	-842.5	6939.303	-50	6939.303	-47.5	6939.303	-3945	6939.303	-30
6939.304	-1122.5	6939.304	-242.5	6939.304	-225	6939.304	-4175	6939.304	-192.5
6939.305	-1305	6939.305	-510	6939.305	-455	6939.305	-4430	6939.305	-370
6939.306	-1512.5	6939.306	-667.5	6939.306	-625	6939.306	-4607.5	6939.306	-537.5
6939.307	-1637.5	6939.307	-837.5	6939.307	-880	6939.307	-4860	6939.307	-762.5
6939.308	-1652.5	6939.308	-902.5	6939.308	-1050	6939.308	-4947.5	6939.308	-940
6939.309	-1885	6939.309	-1032.5	6939.309	-1255	6939.309	-5155	6939.309	-1112.5
6939.31	-1950	6939.31	-1255	6939.31	-1440	6939.31	-5280	6939.31	-1345
6939.311	-2150	6939.311	-1435	6939.311	-1627.5	6939.311	-5490	6939.311	-1455
6939.312	-2357.5	6939.312	-1607.5	6939.312	-1815	6939.312	-5705	6939.312	-1642.5
6939.313	-2472.5	6939.313	-1787.5	6939.313	-1977.5	6939.313	-5840	6939.313	-1815
6939.314	-2647.5	6939.314	-2012.5	6939.314	-2187.5	6939.314	-6085	6939.314	-1975
6939.315	-2985	6939.315	-2175	6939.315	-2360	6939.315	-6255	6939.315	-2175
6939.316	-3112.5	6939.316	-2512.5	6939.316	-2565	6939.316	-6512.5	6939.316	-2330
6939.317	-3222.5	6939.317	-2742.5	6939.317	-2715	6939.317	-6717.5	6939.317	-2490
6939.318	-3465	6939.318	-3057.5	6939.318	-2897.5	6939.318	-6950	6939.318	-2690
6939.319	-3665	6939.319	-3275	6939.319	-3090	6939.319	-7097.5	6939.319	-2897.5
6939.32	-3795	6939.32	-3522.5	6939.32	-3262.5	6939.32	-7362.5	6939.32	-3037.5
6939.321	-4125	6939.321	-3855	6939.321	-3407.5	6939.321	-7527.5	6939.321	-3157.5
6939.322	-4230	6939.322	-4040	6939.322	-3587.5	6939.322	-7700	6939.322	-3335
6939.323	-4357.5	6939.323	-4287.5	6939.323	-3687.5	6939.323	-7830	6939.323	-3457.5
6939.324	-4437.5	6939.324	-4395	6939.324	-3867.5	6939.324	-7977.5	6939.324	-3610
6939.325	-4552.5	6939.325	-4492.5	6939.325	-3977.5	6939.325	-8060	6939.325	-3710
6939.326	-4707.5	6939.326	-4615	6939.326	-4107.5	6939.326	-8182.5	6939.326	-3780
6939.327	-4750	6939.327	-4692.5	6939.327	-4205	6939.327	-8217.5	6939.327	-3882.5
6939.328	-4712.5	6939.328	-4675	6939.328	-4325	6939.328	-8300	6939.328	-4037.5
6939.329	-4812.5	6939.329	-4797.5	6939.329	-4395	6939.329	-8312.5	6939.329	-4067.5
6939.33	-4810	6939.33	-4867.5	6939.33	-4470	6939.33	-8422.5	6939.33	-4165
6939.331	-4870	6939.331	-4895	6939.331	-4607.5	6939.331	-8355	6939.331	-4235
6939.332	-4910	6939.332	-4925	6939.332	-4682.5	6939.332	-8435	6939.332	-4295
6939.333	-5000	6939.333	-5035	6939.333	-4795	6939.333	-8550	6939.333	-4387.5
6939.334	-5130	6939.334	-5117.5	6939.334	-4852.5	6939.334	-8517.5	6939.334	-4430
6939.335	-5252.5	6939.335	-5272.5	6939.335	-4980	6939.335	-8652.5	6939.335	-4540
6939.336	-5390	6939.336	-5447.5	6939.336	-5052.5	6939.336	-8757.5	6939.336	-4602.5
6939.337	-5542.5	6939.337	-5625	6939.337	-5122.5	6939.337	-8792.5	6939.337	-4692.5
6939.338	-5677.5	6939.338	-5752.5	6939.338	-5220	6939.338	-8882.5	6939.338	-4717.5
6939.339	-5747.5	6939.339	-6005	6939.339	-5315	6939.339	-9020	6939.339	-4842.5
6939.34	-5862.5	6939.34	-6132.5	6939.34	-5377.5	6939.34	-9130	6939.34	-4897.5
6939.341	-6000	6939.341	-6340	6939.341	-5470	6939.341	-9227.5	6939.341	-5000
6939.342	-6030	6939.342	-6430	6939.342	-5522.5	6939.342	-9285	6939.342	-5052.5
6939.343	-6170	6939.343	-6535	6939.343	-5580	6939.343	-9307.5	6939.343	-5105
6939.344	-6060	6939.344	-6660	6939.344	-5595	6939.344	-9362.5	6939.344	-5125
6939.345	-6102.5	6939.345	-6680	6939.345	-5630	6939.345	-9402.5	6939.345	-5160
6939.346	-6170	6939.346	-6655	6939.346	-5660	6939.346	-9365	6939.346	-5165
6939.347	-6035	6939.347	-6607.5	6939.347	-5682.5	6939.347	-9360	6939.347	-5177.5
6939.348	-5980	6939.348	-6612.5	6939.348	-5685	6939.348	-9270	6939.348	-5137.5
6939.349	-6010	6939.349	-6610	6939.349	-5740	6939.349	-9255	6939.349	-5160
6939.35	-5912.5	6939.35	-6580	6939.35	-5715	6939.35	-9207.5	6939.35	-5140
6939.351	-5932.5	6939.351	-6517.5	6939.351	-5752.5	6939.351	-9155	6939.351	-5162.5
6939.352	-5970	6939.352	-6490	6939.352	-5787.5	6939.352	-9112.5	6939.352	-5167.5
6939.353	-5972.5	6939.353	-6512.5	6939.353	-5815	6939.353	-9132.5	6939.353	-5195
6939.354	-5935	6939.354	-6550	6939.354	-5770	6939.354	-9160	6939.354	-5167.5
6939.355	-6037.5	6939.355	-6570	6939.355	-5840	6939.355	-9142.5	6939.355	-5175
6939.356	-6055	6939.356	-6645	6939.356	-5892.5	6939.356	-9207.5	6939.356	-5230
6939.357	-6235	6939.357	-6702.5	6939.357	-5885	6939.357	-9277.5	6939.357	-5207.5
6939.358	-6257.5	6939.358	-6862.5	6939.358	-5890	6939.358	-9295	6939.358	-5242.5
6939.359	-6382.5	6939.359	-7012.5	6939.359	-5900	6939.359	-9300	6939.359	-5212.5
6939.36	-6372.5	6939.36	-7105	6939.36	-5897.5	6939.36	-9337.5	6939.36	-5225
6939.361	-6480	6939.361	-7232.5	6939.361	-5915	6939.361	-9370	6939.361	-5252.5
6939.362	-6402.5	6939.362	-7317.5	6939.362	-5922.5	6939.362	-9382.5	6939.362	-5240
6939.363	-6280	6939.363	-7342.5	6939.363	-5915	6939.363	-9382.5	6939.363	-5207.5
6939.364	-6405	6939.364	-7392.5	6939.364	-5932.5	6939.364	-9390	6939.364	-5225
6939.365	-6337.5	6939.365	-7342.5	6939.365	-5922.5	6939.365	-9307.5	6939.365	-5160
6939.366	-6385	6939.366	-7332.5	6939.366	-5895	6939.366	-9252.5	6939.366	-5140
6939.367	-6237.5	6939.367	-7215	6939.367	-5867.5	6939.367	-9142.5	6939.367	-5127.5
6939.368	-6225	6939.368	-7105	6939.368	-5825	6939.368	-9080	6939.368	-5072.5
6939.369	-6180	6939.369	-7010	6939.369	-5807.5	6939.369	-9057.5	6939.369	-5040
6939.37	-6120	6939.37	-6917.5	6939.37	-5782.5	6939.37	-8940	6939.37	-5017.5
6939.371	-6040	6939.371	-6787.5	6939.371	-5757.5	6939.371	-8955	6939.371	-4975
6939.372	-5980	6939.372	-6762.5	6939.372	-5755	6939.372	-8840	6939.372	-4970
6939.373	-5897.5	6939.373	-6705	6939.373	-5752.5	6939.373	-8782.5	6939.373	-4912.5
6939.374	-5945	6939.374	-6760	6939.374	-5745	6939.374	-8745	6939.374	-4932.5
6939.375	-5917.5	6939.375	-6772.5	6939.375	-5747.5	6939.375	-8752.5	6939.375	-4950
6939.376	-5937.5	6939.376	-6902.5	6939.376	-5747.5	6939.376	-8800	6939.376	-4902.5
6939.377	-6022.5	6939.377	-6920	6939.377	-5710	6939.377	-8792.5	6939.377	-4922.5
6939.378	-6080	6939.378	-7032.5	6939.378	-5697.5	6939.378	-8820	6939.378	-4865
6939.379	-6105	6939.379	-7202.5	6939.379	-5692.5	6939.379	-8807.5	6939.379	-4875
6939.38	-6095	6939.38	-7255	6939.38	-5675	6939.38	-8842.5	6939.38	-4840
6939.381	-6130	6939.381	-7327.5	6939.381	-5645	6939.381	-8820	6939.381	-4837.5
6939.382	-6207.5	6939.382	-7320	6939.382	-5697.5	6939.382	-8785	6939.382	-4847.5
6939.383	-6200	6939.383	-7397.5	6939.383	-5640	6939.383	-8760	6939.383	-4787.5
6939.384	-6230	6939.384	-7352.5	6939.384	-5650	6939.384	-8775	6939.384	-4785
6939.385	-6195	6939.385	-7357.5	6939.385	-5610	6939.385	-8722.5	6939.385	-4742.5
6939.386	-6142.5	6939.386	-7275	6939.386	-5567.5	6939.386	-8647.5	6939.386	-4687.5
6939.387	-6012.5	6939.387	-7175	6939.387	-5527.5	6939.387	-8592.5	6939.387	-4667.5
6939.388	-6000	6939.388	-7047.5	6939.388	-5527.5	6939.388	-8475	6939.388	-4617.5
6939.389	-5865	6939.389	-6992.5	6939.389	-5475	6939.389	-8392.5	6939.389	-4572.5
6939.39	-5887.5	6939.39	-6815	6939.39	-5470	6939.39	-8297.5	6939.39	-4555
6939.391	-5755	6939.391	-6697.5	6939.391	-5430	6939.391	-8282.5	6939.391	-4492.5
6939.392	-5715	6939.392	-6757.5	6939.392	-5397.5	6939.392	-8222.5	6939.392	-4467.5
6939.393	-5600	6939.393	-6667.5	6939.393	-5367.5	6939.393	-8150	6939.393	-4425
6939.394	-5622.5	6939.394	-6605	6939.394	-5345	6939.394	-8105	6939.394	-4392.5
6939.395	-5637.5	6939.395	-6632.5	6939.395	-5357.5	6939.395	-8062.5	6939.395	-4450
6939.396	-5702.5	6939.396	-6742.5	6939.396	-5307.5	6939.396	-8147.5	6939.396	-4380
6939.397	-5747.5	6939.397	-6735	6939.397	-5287.5	6939.397	-8132.5	6939.397	-4365
6939.398	-5817.5	6939.398	-6905	6939.398	-5307.5	6939.398	-8150	6939.398	-4370
6939.399	-5702.5	6939.399	-6957.5	6939.399	-5282.5	6939.399	-8185	6939.399	-4340
6939.4	-5822.5	6939.4	-7020	6939.4	-5267.5	6939.4	-8177.5	6939.4	-4352.5
6939.401	-5820	6939.401	-7120	6939.401	-5265	6939.401	-8177.5	6939.401	-4380
6939.402	-5815	6939.402	-7177.5	6939.402	-5277.5	6939.402	-8165	6939.402	-4332.5
6939.403	-5850	6939.403	-7147.5	6939.403	-5247.5	6939.403	-8122.5	6939.403	-4312.5
6939.404	-5805	6939.404	-7150	6939.404	-5190	6939.404	-8082.5	6939.404	-4262.5
6939.405	-5707.5	6939.405	-7100	6939.405	-5182.5	6939.405	-8022.5	6939.405	-4252.5
6939.406	-5735	6939.406	-6990	6939.406	-5132.5	6939.406	-7935	6939.406	-4185
6939.407	-5675	6939.407	-6975	6939.407	-5097.5	6939.407	-7897.5	6939.407	-4155
6939.408	-5537.5	6939.408	-6787.5	6939.408	-5075	6939.408	-7862.5	6939.408	-4100
6939.409	-5517.5	6939.409	-6697.5	6939.409	-5042.5	6939.409	-7702.5	6939.409	-4082.5
6939.41	-5465	6939.41	-6582.5	6939.41	-5012.5	6939.41	-7660	6939.41	-4012.5
6939.411	-5297.5	6939.411	-6502.5	6939.411	-4995	6939.411	-7617.5	6939.411	-4015
6939.412	-5327.5	6939.412	-6377.5	6939.412	-4972.5	6939.412	-7525	6939.412	-3992.5
6939.413	-5242.5	6939.413	-6327.5	6939.413	-4985	6939.413	-7467.5	6939.413	-3967.5
6939.414	-5307.5	6939.414	-6320	6939.414	-4957.5	6939.414	-7415	6939.414	-3977.5
6939.415	-5340	6939.415	-6387.5	6939.415	-4930	6939.415	-7412.5	6939.415	-3905
6939.416	-5335	6939.416	-6435	6939.416	-4922.5	6939.416	-7430	6939.416	-3910
6939.417	-5247.5	6939.417	-6497.5	6939.417	-4887.5	6939.417	-7395	6939.417	-3910
6939.418	-5367.5	6939.418	-6610	6939.418	-4875	6939.418	-7380	6939.418	-3872.5
6939.419	-5435	6939.419	-6630	6939.419	-4862.5	6939.419	-7410	6939.419	-3875
6939.42	-5432.5	6939.42	-6735	6939.42	-4885	6939.42	-7392.5	6939.42	-3902.5
6939.421	-5527.5	6939.421	-6762.5	6939.421	-4857.5	6939.421	-7365	6939.421	-3842.5
6939.422	-5517.5	6939.422	-6827.5	6939.422	-4817.5	6939.422	-7372.5	6939.422	-3832.5
6939.423	-5502.5	6939.423	-6812.5	6939.423	-4840	6939.423	-7300	6939.423	-3835
6939.424	-5405	6939.424	-6835	6939.424	-4815	6939.424	-7255	6939.424	-3855
6939.425	-5430	6939.425	-6760	6939.425	-4762.5	6939.425	-7200	6939.425	-3785
6939.426	-5350	6939.426	-6740	6939.426	-4735	6939.426	-7090	6939.426	-3755
6939.427	-5237.5	6939.427	-6610	6939.427	-4695	6939.427	-7017.5	6939.427	-3695
6939.428	-5150	6939.428	-6500	6939.428	-4652.5	6939.428	-6887.5	6939.428	-3597.5
6939.429	-5155	6939.429	-6320	6939.429	-4640	6939.429	-6742.5	6939.429	-3600
6939.43	-5077.5	6939.43	-6277.5	6939.43	-4605	6939.43	-6735	6939.43	-3577.5
6939.431	-5000	6939.431	-6100	6939.431	-4582.5	6939.431	-6532.5	6939.431	-3515
6939.432	-4985	6939.432	-6082.5	6939.432	-4575	6939.432	-6442.5	6939.432	-3497.5
6939.433	-4927.5	6939.433	-6037.5	6939.433	-4532.5	6939.433	-6410	6939.433	-3457.5
6939.434	-4935	6939.434	-6020	6939.434	-4532.5	6939.434	-6390	6939.434	-3462.5
6939.435	-4920	6939.435	-5992.5	6939.435	-4520	6939.435	-6290	6939.435	-3422.5
6939.436	-4942.5	6939.436	-6082.5	6939.436	-4507.5	6939.436	-6265	6939.436	-3432.5
6939.437	-5005	6939.437	-6145	6939.437	-4487.5	6939.437	-6292.5	6939.437	-3425
6939.438	-5090	6939.438	-6222.5	6939.438	-4482.5	6939.438	-6262.5	6939.438	-3380
6939.439	-5120	6939.439	-6282.5	6939.439	-4440	6939.439	-6252.5	6939.439	-3337.5
6939.44	-5162.5	6939.44	-6392.5	6939.44	-4410	6939.44	-6247.5	6939.44	-3372.5
6939.441	-5137.5	6939.441	-6415	6939.441	-4430	6939.441	-6197.5	6939.441	-3362.5
6939.442	-5112.5	6939.442	-6450	6939.442	-4392.5	6939.442	-6132.5	6939.442	-3312.5
6939.443	-5115	6939.443	-6425	6939.443	-4352.5	6939.443	-6087.5	6939.443	-3300
6939.444	-5110	6939.444	-6430	6939.444	-4300	6939.444	-6040	6939.444	-3227.5
6939.445	-5087.5	6939.445	-6380	6939.445	-4282.5	6939.445	-5947.5	6939.445	-3185
6939.446	-5057.5	6939.446	-6247.5	6939.446	-4250	6939.446	-5782.5	6939.446	-3160
6939.447	-4910	6939.447	-6147.5	6939.447	-4180	6939.447	-5655	6939.447	-3100
6939.448	-4967.5	6939.448	-6012.5	6939.448	-4130	6939.448	-5495	6939.448	-3052.5
6939.449	-4737.5	6939.449	-5882.5	6939.449	-4072.5	6939.449	-5432.5	6939.449	-3002.5
6939.45	-4805	6939.45	-5755	6939.45	-4027.5	6939.45	-5312.5	6939.45	-2952.5
6939.451	-4562.5	6939.451	-5612.5	6939.451	-4007.5	6939.451	-5177.5	6939.451	-2892.5
6939.452	-4545	6939.452	-5585	6939.452	-3962.5	6939.452	-5132.5	6939.452	-2847.5
6939.453	-4672.5	6939.453	-5512.5	6939.453	-3920	6939.453	-5022.5	6939.453	-2795
6939.454	-4640	6939.454	-5530	6939.454	-3922.5	6939.454	-4907.5	6939.454	-2792.5
6939.455	-4580	6939.455	-5527.5	6939.455	-3865	6939.455	-4882.5	6939.455	-2747.5
6939.456	-4642.5	6939.456	-5555	6939.456	-3852.5	6939.456	-4807.5	6939.456	-2717.5
6939.457	-4625	6939.457	-5577.5	6939.457	-3835	6939.457	-4780	6939.457	-2740
6939.458	-4810	6939.458	-5645	6939.458	-3807.5	6939.458	-4725	6939.458	-2690
6939.459	-4722.5	6939.459	-5682.5	6939.459	-3787.5	6939.459	-4682.5	6939.459	-2660
6939.46	-4770	6939.46	-5817.5	6939.46	-3755	6939.46	-4637.5	6939.46	-2642.5
6939.461	-4775	6939.461	-5872.5	6939.461	-3725	6939.461	-4537.5	6939.461	-2612.5
6939.462	-4810	6939.462	-5910	6939.462	-3717.5	6939.462	-4445	6939.462	-2622.5
6939.463	-4835	6939.463	-5887.5	6939.463	-3707.5	6939.463	-4397.5	6939.463	-2595
6939.464	-4770	6939.464	-5905	6939.464	-3642.5	6939.464	-4305	6939.464	-2525
6939.465	-4705	6939.465	-5830	6939.465	-3622.5	6939.465	-4152.5	6939.465	-2505
6939.466	-4685	6939.466	-5715	6939.466	-3565	6939.466	-4027.5	6939.466	-2412.5
6939.467	-4552.5	6939.467	-5605	6939.467	-3520	6939.467	-3842.5	6939.467	-2395
6939.468	-4427.5	6939.468	-5430	6939.468	-3492.5	6939.468	-3657.5	6939.468	-2327.5
6939.469	-4442.5	6939.469	-5337.5	6939.469	-3460	6939.469	-3435	6939.469	-2280
6939.47	-4417.5	6939.47	-5280	6939.47	-3450	6939.47	-3305	6939.47	-2252.5
6939.471	-4375	6939.471	-5187.5	6939.471	-3382.5	6939.471	-3125	6939.471	-2230
6939.472	-4345	6939.472	-5065	6939.472	-3405	6939.472	-2955	6939.472	-2220
6939.473	-4222.5	6939.473	-4990	6939.473	-3345	6939.473	-2782.5	6939.473	-2152.5
6939.474	-4300	6939.474	-4960	6939.474	-3360	6939.474	-2657.5	6939.474	-2120
6939.475	-4302.5	6939.475	-5002.5	6939.475	-3345	6939.475	-2525	6939.475	-2135
6939.476	-4315	6939.476	-5022.5	6939.476	-3325	6939.476	-2452.5	6939.476	-2135
6939.477	-4317.5	6939.477	-5095	6939.477	-3295	6939.477	-2367.5	6939.477	-2095
6939.478	-4400	6939.478	-5157.5	6939.478	-3265	6939.478	-2327.5	6939.478	-2067.5
6939.479	-4420	6939.479	-5205	6939.479	-3257.5	6939.479	-2242.5	6939.479	-2067.5
6939.48	-4462.5	6939.48	-5227.5	6939.48	-3242.5	6939.48	-2202.5	6939.48	-2072.5
6939.481	-4492.5	6939.481	-5270	6939.481	-3260	6939.481	-2115	6939.481	-2075
6939.482	-4472.5	6939.482	-5367.5	6939.482	-3237.5	6939.482	-2017.5	6939.482	-2070
6939.483	-4380	6939.483	-5297.5	6939.483	-3180	6939.483	-1942.5	6939.483	-2000
6939.484	-4457.5	6939.484	-5332.5	6939.484	-3180	6939.484	-1890	6939.484	-1975
6939.485	-4472.5	6939.485	-5272.5	6939.485	-3135	6939.485	-1782.5	6939.485	-1962.5
6939.486	-4347.5	6939.486	-5130	6939.486	-3105	6939.486	-1585	6939.486	-1920
6939.487	-4252.5	6939.487	-5005	6939.487	-3070	6939.487	-1497.5	6939.487	-1917.5
6939.488	-4272.5	6939.488	-4892.5	6939.488	-3007.5	6939.488	-1400	6939.488	-1875
6939.489	-4097.5	6939.489	-4787.5	6939.489	-3000	6939.489	-1235	6939.489	-1835
6939.49	-3952.5	6939.49	-4702.5	6939.49	-2975	6939.49	-1077.5	6939.49	-1815
6939.491	-3855	6939.491	-4572.5	6939.491	-2942.5	6939.491	-1002.5	6939.491	-1765
6939.492	-3890	6939.492	-4457.5	6939.492	-2897.5	6939.492	-900	6939.492	-1720
6939.493	-3885	6939.493	-4437.5	6939.493	-2920	6939.493	-807.5	6939.493	-1710
6939.494	-3927.5	6939.494	-4390	6939.494	-2890	6939.494	-787.5	6939.494	-1695
6939.495	-3880	6939.495	-4450	6939.495	-2885	6939.495	-737.5	6939.495	-1707.5
6939.496	-3910	6939.496	-4442.5	6939.496	-2865	6939.496	-725	6939.496	-1685
6939.497	-3912.5	6939.497	-4477.5	6939.497	-2850	6939.497	-675	6939.497	-1677.5
6939.498	-3967.5	6939.498	-4520	6939.498	-2865	6939.498	-692.5	6939.498	-1730
6939.499	-3925	6939.499	-4557.5	6939.499	-2865	6939.499	-715	6939.499	-1690
6939.5	-4015	6939.5	-4667.5	6939.5	-2862.5	6939.5	-732.5	6939.5	-1712.5
6939.501	-4020	6939.501	-4750	6939.501	-2837.5	6939.501	-687.5	6939.501	-1687.5
6939.502	-4057.5	6939.502	-4792.5	6939.502	-2792.5	6939.502	-712.5	6939.502	-1675
6939.503	-3980	6939.503	-4740	6939.503	-2822.5	6939.503	-660	6939.503	-1675
6939.504	-3950	6939.504	-4747.5	6939.504	-2735	6939.504	-645	6939.504	-1612.5
6939.505	-3917.5	6939.505	-4630	6939.505	-2705	6939.505	-527.5	6939.505	-1615
6939.506	-3840	6939.506	-4565	6939.506	-2677.5	6939.506	-487.5	6939.506	-1560
6939.507	-3830	6939.507	-4475	6939.507	-2672.5	6939.507	-455	6939.507	-1560
6939.508	-3707.5	6939.508	-4260	6939.508	-2600	6939.508	-355	6939.508	-1462.5
6939.509	-3690	6939.509	-4237.5	6939.509	-2560	6939.509	-330	6939.509	-1445
6939.51	-3597.5	6939.51	-4152.5	6939.51	-2582.5	6939.51	-265	6939.51	-1435
6939.511	-3522.5	6939.511	-4022.5	6939.511	-2530	6939.511	-190	6939.511	-1395
6939.512	-3467.5	6939.512	-3985	6939.512	-2520	6939.512	-192.5	6939.512	-1375
6939.513	-3362.5	6939.513	-3955	6939.513	-2522.5	6939.513	-150	6939.513	-1360
6939.514	-3340	6939.514	-3817.5	6939.514	-2482.5	6939.514	-152.5	6939.514	-1377.5
6939.515	-3350	6939.515	-3892.5	6939.515	-2455	6939.515	-135	6939.515	-1332.5
6939.516	-3377.5	6939.516	-3917.5	6939.516	-2480	6939.516	-130	6939.516	-1355
6939.517	-3477.5	6939.517	-3907.5	6939.517	-2417.5	6939.517	-127.5	6939.517	-1317.5
6939.518	-3497.5	6939.518	-4090	6939.518	-2415	6939.518	-200	6939.518	-1370
6939.519	-3490	6939.519	-4077.5	6939.519	-2380	6939.519	-232.5	6939.519	-1317.5
6939.52	-3577.5	6939.52	-4122.5	6939.52	-2357.5	6939.52	-257.5	6939.52	-1340
6939.521	-3530	6939.521	-4152.5	6939.521	-2367.5	6939.521	-327.5	6939.521	-1340
6939.522	-3615	6939.522	-4202.5	6939.522	-2375	6939.522	-370	6939.522	-1322.5
6939.523	-3650	6939.523	-4225	6939.523	-2370	6939.523	-380	6939.523	-1307.5
6939.524	-3607.5	6939.524	-4137.5	6939.524	-2342.5	6939.524	-380	6939.524	-1320
6939.525	-3562.5	6939.525	-4062.5	6939.525	-2325	6939.525	-355	6939.525	-1287.5
6939.526	-3442.5	6939.526	-3952.5	6939.526	-2287.5	6939.526	-302.5	6939.526	-1212.5
6939.527	-3410	6939.527	-3815	6939.527	-2232.5	6939.527	-257.5	6939.527	-1187.5
6939.528	-3370	6939.528	-3717.5	6939.528	-2215	6939.528	-242.5	6939.528	-1157.5
6939.529	-3255	6939.529	-3635	6939.529	-2182.5	6939.529	-227.5	6939.529	-1147.5
6939.53	-3192.5	6939.53	-3557.5	6939.53	-2152.5	6939.53	-185	6939.53	-1137.5
6939.531	-3092.5	6939.531	-3415	6939.531	-2140	6939.531	-135	6939.531	-1127.5
6939.532	-3082.5	6939.532	-3332.5	6939.532	-2140	6939.532	-167.5	6939.532	-1112.5
6939.533	-3040	6939.533	-3277.5	6939.533	-2092.5	6939.533	-112.5	6939.533	-1055
6939.534	-3110	6939.534	-3250	6939.534	-2102.5	6939.534	-140	6939.534	-1040
6939.535	-3007.5	6939.535	-3217.5	6939.535	-2052.5	6939.535	-175	6939.535	-1032.5
6939.536	-3080	6939.536	-3272.5	6939.536	-2067.5	6939.536	-202.5	6939.536	-1077.5
6939.537	-3165	6939.537	-3347.5	6939.537	-2097.5	6939.537	-225	6939.537	-1105
6939.538	-3205	6939.538	-3450	6939.538	-2055	6939.538	-280	6939.538	-1072.5
6939.539	-3232.5	6939.539	-3490	6939.539	-2057.5	6939.539	-315	6939.539	-1077.5
6939.54	-3285	6939.54	-3607.5	6939.54	-2072.5	6939.54	-362.5	6939.54	-1075
6939.541	-3275	6939.541	-3607.5	6939.541	-2045	6939.541	-385	6939.541	-1110
6939.542	-3277.5	6939.542	-3610	6939.542	-2072.5	6939.542	-465	6939.542	-1127.5
6939.543	-3160	6939.543	-3662.5	6939.543	-2002.5	6939.543	-495	6939.543	-1092.5
6939.544	-3200	6939.544	-3630	6939.544	-1992.5	6939.544	-495	6939.544	-1057.5
6939.545	-3187.5	6939.545	-3600	6939.545	-1962.5	6939.545	-465	6939.545	-1055
6939.546	-3060	6939.546	-3380	6939.546	-1905	6939.546	-457.5	6939.546	-955
6939.547	-3025	6939.547	-3292.5	6939.547	-1895	6939.547	-387.5	6939.547	-1000
6939.548	-2952.5	6939.548	-3280	6939.548	-1855	6939.548	-365	6939.548	-987.5
6939.549	-2830	6939.549	-3092.5	6939.549	-1840	6939.549	-337.5	6939.549	-927.5
6939.55	-2857.5	6939.55	-3000	6939.55	-1822.5	6939.55	-312.5	6939.55	-935
6939.551	-2747.5	6939.551	-2917.5	6939.551	-1777.5	6939.551	-237.5	6939.551	-857.5
6939.552	-2662.5	6939.552	-2792.5	6939.552	-1737.5	6939.552	-267.5	6939.552	-815
6939.553	-2552.5	6939.553	-2682.5	6939.553	-1775	6939.553	-172.5	6939.553	-890
6939.554	-2572.5	6939.554	-2627.5	6939.554	-1775	6939.554	-202.5	6939.554	-882.5
6939.555	-2610	6939.555	-2695	6939.555	-1755	6939.555	-197.5	6939.555	-902.5
6939.556	-2687.5	6939.556	-2750	6939.556	-1762.5	6939.556	-262.5	6939.556	-907.5
6939.557	-2660	6939.557	-2777.5	6939.557	-1710	6939.557	-317.5	6939.557	-885
6939.558	-2800	6939.558	-2867.5	6939.558	-1715	6939.558	-360	6939.558	-912.5
6939.559	-2737.5	6939.559	-2917.5	6939.559	-1737.5	6939.559	-390	6939.559	-920
6939.56	-2815	6939.56	-2910	6939.56	-1717.5	6939.56	-495	6939.56	-935
6939.561	-2892.5	6939.561	-3090	6939.561	-1727.5	6939.561	-517.5	6939.561	-955
6939.562	-2897.5	6939.562	-3015	6939.562	-1722.5	6939.562	-585	6939.562	-945
6939.563	-2845	6939.563	-3045	6939.563	-1680	6939.563	-562.5	6939.563	-905
6939.564	-2782.5	6939.564	-3060	6939.564	-1652.5	6939.564	-620	6939.564	-905
6939.565	-2855	6939.565	-2982.5	6939.565	-1650	6939.565	-537.5	6939.565	-890
6939.566	-2702.5	6939.566	-2865	6939.566	-1635	6939.566	-502.5	6939.566	-915
6939.567	-2562.5	6939.567	-2752.5	6939.567	-1587.5	6939.567	-515	6939.567	-897.5
6939.568	-2520	6939.568	-2655	6939.568	-1552.5	6939.568	-445	6939.568	-815
6939.569	-2475	6939.569	-2537.5	6939.569	-1530	6939.569	-345	6939.569	-825
6939.57	-2470	6939.57	-2475	6939.57	-1532.5	6939.57	-347.5	6939.57	-842.5
6939.571	-2315	6939.571	-2352.5	6939.571	-1522.5	6939.571	-230	6939.571	-820
6939.572	-2315	6939.572	-2302.5	6939.572	-1510	6939.572	-295	6939.572	-792.5
6939.573	-2340	6939.573	-2202.5	6939.573	-1452.5	6939.573	-192.5	6939.573	-740
6939.574	-2295	6939.574	-2180	6939.574	-1455	6939.574	-182.5	6939.574	-787.5
6939.575	-2297.5	6939.575	-2070	6939.575	-1460	6939.575	-202.5	6939.575	-730
6939.576	-2317.5	6939.576	-2120	6939.576	-1455	6939.576	-260	6939.576	-757.5
6939.577	-2310	6939.577	-2260	6939.577	-1435	6939.577	-295	6939.577	-812.5
6939.578	-2342.5	6939.578	-2317.5	6939.578	-1452.5	6939.578	-395	6939.578	-807.5
6939.579	-2325	6939.579	-2320	6939.579	-1417.5	6939.579	-422.5	6939.579	-817.5
6939.58	-2392.5	6939.58	-2447.5	6939.58	-1460	6939.58	-420	6939.58	-820
6939.581	-2462.5	6939.581	-2527.5	6939.581	-1442.5	6939.581	-460	6939.581	-902.5
6939.582	-2472.5	6939.582	-2572.5	6939.582	-1402.5	6939.582	-462.5	6939.582	-842.5
6939.583	-2440	6939.583	-2582.5	6939.583	-1417.5	6939.583	-510	6939.583	-837.5
6939.584	-2552.5	6939.584	-2535	6939.584	-1407.5	6939.584	-495	6939.584	-867.5
6939.585	-2425	6939.585	-2465	6939.585	-1380	6939.585	-472.5	6939.585	-850
6939.586	-2350	6939.586	-2440	6939.586	-1397.5	6939.586	-457.5	6939.586	-830
6939.587	-2260	6939.587	-2310	6939.587	-1330	6939.587	-357.5	6939.587	-780
6939.588	-2207.5	6939.588	-2205	6939.588	-1305	6939.588	-362.5	6939.588	-792.5
6939.589	-2177.5	6939.589	-2057.5	6939.589	-1287.5	6939.589	-327.5	6939.589	-770
6939.59	-2165	6939.59	-2007.5	6939.59	-1275	6939.59	-267.5	6939.59	-762.5
6939.591	-2047.5	6939.591	-1867.5	6939.591	-1262.5	6939.591	-257.5	6939.591	-762.5
6939.592	-2080	6939.592	-1815	6939.592	-1262.5	6939.592	-207.5	6939.592	-735
6939.593	-2050	6939.593	-1710	6939.593	-1257.5	6939.593	-157.5	6939.593	-745
6939.594	-2022.5	6939.594	-1707.5	6939.594	-1235	6939.594	-192.5	6939.594	-737.5
6939.595	-2057.5	6939.595	-1760	6939.595	-1217.5	6939.595	-187.5	6939.595	-725
6939.596	-2062.5	6939.596	-1757.5	6939.596	-1215	6939.596	-205	6939.596	-707.5
6939.597	-2117.5	6939.597	-1802.5	6939.597	-1225	6939.597	-282.5	6939.597	-757.5
6939.598	-2147.5	6939.598	-1912.5	6939.598	-1227.5	6939.598	-280	6939.598	-727.5
