E2(X)	E2(Y)	E3(X)	E3(Y)	E4(X)	E4(Y)	F1(X)	F1(Y)	F3(X)	F3(Y)
6938.063	-5752.5	6938.063	-2630	6938.063	-3190	6938.063	-2710	6938.063	587.5
6938.064	-5692.5	6938.064	-2592.5	6938.064	-3122.5	6938.064	-2702.5	6938.064	710
6938.065	-5495	6938.065	-2477.5	6938.065	-3025	6938.065	-2567.5	6938.065	807.5
6938.066	-5355	6938.066	-2335	6938.066	-2917.5	6938.066	-2442.5	6938.066	947.5
6938.067	-5202.5	6938.067	-2195	6938.067	-2777.5	6938.067	-2330	6938.067	1195
6938.068	-5082.5	6938.068	-2060	6938.068	-2680	6938.068	-2277.5	6938.068	1285
6938.069	-4997.5	6938.069	-2000	6938.069	-2597.5	6938.069	-2207.5	6938.069	1385
6938.07	-4927.5	6938.07	-1985	6938.07	-2520	6938.07	-2100	6938.07	1587.5
6938.071	-4755	6938.071	-1862.5	6938.071	-2452.5	6938.071	-1975	6938.071	1772.5
6938.072	-4682.5	6938.072	-1780	6938.072	-2372.5	6938.072	-1982.5	6938.072	1895
6938.073	-4592.5	6938.073	-1667.5	6938.073	-2212.5	6938.073	-1997.5	6938.073	1995
6938.074	-4597.5	6938.074	-1687.5	6938.074	-2282.5	6938.074	-2060	6938.074	2022.5
6938.075	-4687.5	6938.075	-1730	6938.075	-2350	6938.075	-2185	6938.075	1985
6938.076	-4750	6938.076	-1682.5	6938.076	-2377.5	6938.076	-2092.5	6938.076	2007.5
6938.077	-4815	6938.077	-1775	6938.077	-2270	6938.077	-2195	6938.077	1955
6938.078	-4912.5	6938.078	-1722.5	6938.078	-2247.5	6938.078	-2100	6938.078	1860
6938.079	-4907.5	6938.079	-1687.5	6938.079	-2170	6938.079	-2097.5	6938.079	1857.5
6938.08	-5020	6938.08	-1700	6938.08	-2177.5	6938.08	-2220	6938.08	1787.5
6938.081	-4962.5	6938.081	-1817.5	6938.081	-2145	6938.081	-2117.5	6938.081	1737.5
6938.082	-4970	6938.082	-1727.5	6938.082	-2135	6938.082	-2147.5	6938.082	1775
6938.083	-4930	6938.083	-1672.5	6938.083	-2135	6938.083	-2130	6938.083	1802.5
6938.084	-4950	6938.084	-1692.5	6938.084	-1965	6938.084	-2095	6938.084	1870
6938.085	-4782.5	6938.085	-1500	6938.085	-1837.5	6938.085	-2092.5	6938.085	1915
6938.086	-4695	6938.086	-1482.5	6938.086	-1805	6938.086	-1862.5	6938.086	2065
6938.087	-4492.5	6938.087	-1387.5	6938.087	-1762.5	6938.087	-1802.5	6938.087	2215
6938.088	-4280	6938.088	-1267.5	6938.088	-1655	6938.088	-1642.5	6938.088	2352.5
6938.089	-4135	6938.089	-1175	6938.089	-1487.5	6938.089	-1642.5	6938.089	2480
6938.09	-3965	6938.09	-1060	6938.09	-1410	6938.09	-1507.5	6938.09	2627.5
6938.091	-3927.5	6938.091	-982.5	6938.091	-1367.5	6938.091	-1475	6938.091	2790
6938.092	-3760	6938.092	-865	6938.092	-1275	6938.092	-1365	6938.092	2885
6938.093	-3700	6938.093	-810	6938.093	-1187.5	6938.093	-1447.5	6938.093	3010
6938.094	-3697.5	6938.094	-822.5	6938.094	-1192.5	6938.094	-1452.5	6938.094	3020
6938.095	-3742.5	6938.095	-877.5	6938.095	-1187.5	6938.095	-1495	6938.095	2962.5
6938.096	-3705	6938.096	-755	6938.096	-1160	6938.096	-1495	6938.096	2875
6938.097	-3747.5	6938.097	-832.5	6938.097	-1142.5	6938.097	-1430	6938.097	2912.5
6938.098	-3732.5	6938.098	-827.5	6938.098	-1185	6938.098	-1432.5	6938.098	2842.5
6938.099	-3850	6938.099	-845	6938.099	-1077.5	6938.099	-1490	6938.099	2822.5
6938.1	-3910	6938.1	-780	6938.1	-1042.5	6938.1	-1515	6938.1	2767.5
6938.101	-3875	6938.101	-740	6938.101	-947.5	6938.101	-1525	6938.101	2692.5
6938.102	-3800	6938.102	-737.5	6938.102	-885	6938.102	-1357.5	6938.102	2710
6938.103	-3845	6938.103	-642.5	6938.103	-790	6938.103	-1357.5	6938.103	2847.5
6938.104	-3740	6938.104	-550	6938.104	-782.5	6938.104	-1330	6938.104	2910
6938.105	-3697.5	6938.105	-492.5	6938.105	-682.5	6938.105	-1315	6938.105	2930
6938.106	-3692.5	6938.106	-560	6938.106	-605	6938.106	-1422.5	6938.106	3055
6938.107	-3297.5	6938.107	-187.5	6938.107	-50	6938.107	-1070	6938.107	3542.5
6938.108	-1330	6938.108	1665	6938.108	1540	6938.108	997.5	6938.108	5477.5
6938.109	1195	6938.109	3860	6938.109	2980	6938.109	3617.5	6938.109	7630
6938.11	3995	6938.11	5910	6938.11	3737.5	6938.11	6965	6938.11	9430
6938.111	7212.5	6938.111	8227.5	6938.111	4787.5	6938.111	10510	6938.111	11632.5
6938.112	12852.5	6938.112	13717.5	6938.112	9325	6938.112	16422.5	6938.112	16940
6938.113	18760	6938.113	20727.5	6938.113	16617.5	6938.113	21682.5	6938.113	23970
6938.114	29102.5	6938.114	34395	6938.114	29790	6938.114	29905	6938.114	36787.5
6938.115	38625	6938.115	48527.5	6938.115	42427.5	6938.115	36697.5	6938.115	48875
6938.116	45117.5	6938.116	58520	6938.116	49452.5	6938.116	40190	6938.116	55352.5
6938.117	52665	6938.117	66412.5	6938.117	55430	6938.117	46582.5	6938.117	59530
6938.118	60485	6938.118	74542.5	6938.118	61127.5	6938.118	50177.5	6938.118	64635
6938.119	53812.5	6938.119	81917.5	6938.119	50210	6938.119	14847.5	6938.119	70632.5
6938.12	-7950	6938.12	79510	6938.12	40047.5	6938.12	-12897.5	6938.12	54577.5
6938.121	1240	6938.121	2212.5	6938.121	-3540	6938.121	-2310	6938.121	-2467.5
6938.122	6800	6938.122	3537.5	6938.122	-13640	6938.122	2927.5	6938.122	4377.5
6938.123	8090	6938.123	9127.5	6938.123	-1115	6938.123	4517.5	6938.123	7640
6938.124	7775	6938.124	10630	6938.124	2007.5	6938.124	4590	6938.124	7942.5
6938.125	8132.5	6938.125	11460	6938.125	3852.5	6938.125	5050	6938.125	8227.5
6938.126	8922.5	6938.126	12232.5	6938.126	5457.5	6938.126	6020	6938.126	8595
6938.127	8717.5	6938.127	11845	6938.127	5530	6938.127	6022.5	6938.127	7822.5
6938.128	9175	6938.128	12040	6938.128	6095	6938.128	6242.5	6938.128	7590
6938.129	9800	6938.129	12497.5	6938.129	6830	6938.129	6507.5	6938.129	7617.5
6938.13	10340	6938.13	12957.5	6938.13	7465	6938.13	6720	6938.13	7580
6938.131	10282.5	6938.131	12802.5	6938.131	7497.5	6938.131	6335	6938.131	7102.5
6938.132	10740	6938.132	13132.5	6938.132	8017.5	6938.132	6315	6938.132	7122.5
6938.133	11465	6938.133	14087.5	6938.133	8820	6938.133	6785	6938.133	7760
6938.134	12395	6938.134	15425	6938.134	9692.5	6938.134	7285	6938.134	8702.5
6938.135	13200	6938.135	16842.5	6938.135	10375	6938.135	7690	6938.135	9747.5
6938.136	14035	6938.136	18427.5	6938.136	10857.5	6938.136	8165	6938.136	10985
6938.137	14767.5	6938.137	19927.5	6938.137	11217.5	6938.137	8500	6938.137	12430
6938.138	15475	6938.138	21582.5	6938.138	11412.5	6938.138	9030	6938.138	14012.5
6938.139	16105	6938.139	22985	6938.139	11765	6938.139	9350	6938.139	15527.5
6938.14	16635	6938.14	24115	6938.14	11900	6938.14	9857.5	6938.14	16985
6938.141	17097.5	6938.141	24907.5	6938.141	12102.5	6938.141	10337.5	6938.141	18390
6938.142	17505	6938.142	25565	6938.142	12252.5	6938.142	10812.5	6938.142	19592.5
6938.143	17737.5	6938.143	25950	6938.143	12482.5	6938.143	11127.5	6938.143	20597.5
6938.144	17885	6938.144	26090	6938.144	12547.5	6938.144	11570	6938.144	21317.5
6938.145	17992.5	6938.145	26107.5	6938.145	12830	6938.145	11862.5	6938.145	21897.5
6938.146	17977.5	6938.146	26005	6938.146	12910	6938.146	12165	6938.146	22287.5
6938.147	17970	6938.147	25902.5	6938.147	13057.5	6938.147	12400	6938.147	22515
6938.148	17795	6938.148	25572.5	6938.148	13145	6938.148	12490	6938.148	22642.5
6938.149	17532.5	6938.149	25195	6938.149	13162.5	6938.149	12417.5	6938.149	22537.5
6938.15	17330	6938.15	24935	6938.15	13197.5	6938.15	12277.5	6938.15	22425
6938.151	17005	6938.151	24402.5	6938.151	12965	6938.151	11952.5	6938.151	22187.5
6938.152	16630	6938.152	23917.5	6938.152	12875	6938.152	11695	6938.152	21832.5
6938.153	16135	6938.153	23390	6938.153	12725	6938.153	11362.5	6938.153	21465
6938.154	15700	6938.154	22867.5	6938.154	12457.5	6938.154	11055	6938.154	21007.5
6938.155	15140	6938.155	22247.5	6938.155	12155	6938.155	10692.5	6938.155	20405
6938.156	14547.5	6938.156	21622.5	6938.156	11825	6938.156	10192.5	6938.156	19840
6938.157	13977.5	6938.157	20972.5	6938.157	11512.5	6938.157	9702.5	6938.157	19250
6938.158	13305	6938.158	20282.5	6938.158	11095	6938.158	9235	6938.158	18637.5
6938.159	12687.5	6938.159	19680	6938.159	10775	6938.159	8627.5	6938.159	17985
6938.16	12150	6938.16	18910	6938.16	10407.5	6938.16	8320	6938.16	17350
6938.161	11627.5	6938.161	18335	6938.161	10125	6938.161	7852.5	6938.161	16730
6938.162	11147.5	6938.162	17602.5	6938.162	9720	6938.162	7372.5	6938.162	16227.5
6938.163	10652.5	6938.163	16840	6938.163	9352.5	6938.163	7090	6938.163	15640
6938.164	10235	6938.164	16077.5	6938.164	9020	6938.164	6717.5	6938.164	15192.5
6938.165	9890	6938.165	15402.5	6938.165	8745	6938.165	6442.5	6938.165	14775
6938.166	9507.5	6938.166	14620	6938.166	8485	6938.166	5997.5	6938.166	14347.5
6938.167	9215	6938.167	14040	6938.167	8090	6938.167	5760	6938.167	13990
6938.168	8960	6938.168	13250	6938.168	7862.5	6938.168	5502.5	6938.168	13652.5
6938.169	8647.5	6938.169	12575	6938.169	7592.5	6938.169	5237.5	6938.169	13342.5
6938.17	8357.5	6938.17	11942.5	6938.17	7337.5	6938.17	4965	6938.17	13010
6938.171	8160	6938.171	11242.5	6938.171	7070	6938.171	4802.5	6938.171	12762.5
6938.172	7827.5	6938.172	10592.5	6938.172	6665	6938.172	4555	6938.172	12360
6938.173	7480	6938.173	9945	6938.173	6382.5	6938.173	4202.5	6938.173	11852.5
6938.174	7195	6938.174	9420	6938.174	6120	6938.174	4105	6938.174	11265
6938.175	6737.5	6938.175	8745	6938.175	5820	6938.175	3637.5	6938.175	10347.5
6938.176	6412.5	6938.176	8152.5	6938.176	5427.5	6938.176	3372.5	6938.176	9515
6938.177	6075	6938.177	7550	6938.177	5150	6938.177	3240	6938.177	8510
6938.178	5672.5	6938.178	7062.5	6938.178	4890	6938.178	2892.5	6938.178	7465
6938.179	5247.5	6938.179	6487.5	6938.179	4617.5	6938.179	2572.5	6938.179	6487.5
6938.18	4920	6938.18	6030	6938.18	4372.5	6938.18	2452.5	6938.18	5602.5
6938.181	4637.5	6938.181	5445	6938.181	4082.5	6938.181	2232.5	6938.181	4742.5
6938.182	4315	6938.182	5045	6938.182	3852.5	6938.182	2160	6938.182	3967.5
6938.183	3972.5	6938.183	4645	6938.183	3652.5	6938.183	2105	6938.183	3185
6938.184	3830	6938.184	4227.5	6938.184	3425	6938.184	1905	6938.184	2487.5
6938.185	3700	6938.185	3957.5	6938.185	3207.5	6938.185	1810	6938.185	1960
6938.186	3507.5	6938.186	3562.5	6938.186	3042.5	6938.186	1810	6938.186	1425
6938.187	3395	6938.187	3212.5	6938.187	2862.5	6938.187	1657.5	6938.187	1025
6938.188	3330	6938.188	2975	6938.188	2750	6938.188	1550	6938.188	530
6938.189	3105	6938.189	2707.5	6938.189	2562.5	6938.189	1590	6938.189	157.5
6938.19	3100	6938.19	2367.5	6938.19	2397.5	6938.19	1492.5	6938.19	-207.5
6938.191	2872.5	6938.191	2005	6938.191	2192.5	6938.191	1412.5	6938.191	-552.5
6938.192	2652.5	6938.192	1652.5	6938.192	1902.5	6938.192	1310	6938.192	-922.5
6938.193	2470	6938.193	1352.5	6938.193	1867.5	6938.193	1287.5	6938.193	-1282.5
6938.194	2305	6938.194	1035	6938.194	1590	6938.194	1105	6938.194	-1635
6938.195	1937.5	6938.195	670	6938.195	1312.5	6938.195	952.5	6938.195	-2060
6938.196	1687.5	6938.196	280	6938.196	1112.5	6938.196	830	6938.196	-2520
6938.197	1365	6938.197	-137.5	6938.197	922.5	6938.197	617.5	6938.197	-2962.5
6938.198	917.5	6938.198	-470	6938.198	732.5	6938.198	435	6938.198	-3492.5
6938.199	662.5	6938.199	-862.5	6938.199	465	6938.199	182.5	6938.199	-3875
6938.2	317.5	6938.2	-1215	6938.2	175	6938.2	-2.5	6938.2	-4270
6938.201	-45	6938.201	-1560	6938.201	37.5	6938.201	-92.5	6938.201	-4617.5
6938.202	-272.5	6938.202	-1935	6938.202	-152.5	6938.202	-205	6938.202	-4950
6938.203	-477.5	6938.203	-2280	6938.203	-280	6938.203	-262.5	6938.203	-5287.5
6938.204	-645	6938.204	-2592.5	6938.204	-510	6938.204	-505	6938.204	-5595
6938.205	-827.5	6938.205	-2870	6938.205	-645	6938.205	-412.5	6938.205	-5765
6938.206	-990	6938.206	-3137.5	6938.206	-820	6938.206	-602.5	6938.206	-5925
6938.207	-1057.5	6938.207	-3402.5	6938.207	-900	6938.207	-557.5	6938.207	-6117.5
6938.208	-1180	6938.208	-3662.5	6938.208	-1082.5	6938.208	-720	6938.208	-6345
6938.209	-1325	6938.209	-3872.5	6938.209	-1165	6938.209	-795	6938.209	-6500
6938.21	-1380	6938.21	-4130	6938.21	-1202.5	6938.21	-762.5	6938.21	-6617.5
6938.211	-1490	6938.211	-4267.5	6938.211	-1427.5	6938.211	-995	6938.211	-6822.5
6938.212	-1677.5	6938.212	-4632.5	6938.212	-1582.5	6938.212	-1057.5	6938.212	-7055
6938.213	-1882.5	6938.213	-4825	6938.213	-1725	6938.213	-1195	6938.213	-7240
6938.214	-2052.5	6938.214	-5100	6938.214	-1895	6938.214	-1225	6938.214	-7410
6938.215	-2325	6938.215	-5397.5	6938.215	-2077.5	6938.215	-1522.5	6938.215	-7700
6938.216	-2652.5	6938.216	-5730	6938.216	-2272.5	6938.216	-1787.5	6938.216	-7960
6938.217	-2927.5	6938.217	-5970	6938.217	-2440	6938.217	-1812.5	6938.217	-8260
6938.218	-3207.5	6938.218	-6210	6938.218	-2617.5	6938.218	-2022.5	6938.218	-8530
6938.219	-3540	6938.219	-6487.5	6938.219	-2855	6938.219	-2252.5	6938.219	-8797.5
6938.22	-3817.5	6938.22	-6765	6938.22	-2927.5	6938.22	-2407.5	6938.22	-9097.5
6938.221	-4047.5	6938.221	-7012.5	6938.221	-3032.5	6938.221	-2435	6938.221	-9392.5
6938.222	-4185	6938.222	-7280	6938.222	-3132.5	6938.222	-2570	6938.222	-9525
6938.223	-4472.5	6938.223	-7412.5	6938.223	-3197.5	6938.223	-2675	6938.223	-9727.5
6938.224	-4577.5	6938.224	-7572.5	6938.224	-3297.5	6938.224	-2675	6938.224	-9832.5
6938.225	-4572.5	6938.225	-7740	6938.225	-3397.5	6938.225	-2582.5	6938.225	-9920
6938.226	-4620	6938.226	-7872.5	6938.226	-3462.5	6938.226	-2742.5	6938.226	-10040
6938.227	-4607.5	6938.227	-8022.5	6938.227	-3475	6938.227	-2685	6938.227	-10015
6938.228	-4635	6938.228	-8075	6938.228	-3452.5	6938.228	-2740	6938.228	-10075
6938.229	-4720	6938.229	-8197.5	6938.229	-3600	6938.229	-2792.5	6938.229	-10042.5
6938.23	-4745	6938.23	-8260	6938.23	-3577.5	6938.23	-2842.5	6938.23	-10077.5
6938.231	-4725	6938.231	-8387.5	6938.231	-3552.5	6938.231	-2812.5	6938.231	-10142.5
6938.232	-4785	6938.232	-8512.5	6938.232	-3677.5	6938.232	-2827.5	6938.232	-10170
6938.233	-4860	6938.233	-8572.5	6938.233	-3702.5	6938.233	-2940	6938.233	-10167.5
6938.234	-4947.5	6938.234	-8765	6938.234	-3852.5	6938.234	-3082.5	6938.234	-10295
6938.235	-5147.5	6938.235	-8865	6938.235	-4017.5	6938.235	-3252.5	6938.235	-10422.5
6938.236	-5292.5	6938.236	-9055	6938.236	-4045	6938.236	-3290	6938.236	-10520
6938.237	-5555	6938.237	-9167.5	6938.237	-4117.5	6938.237	-3280	6938.237	-10677.5
6938.238	-5750	6938.238	-9297.5	6938.238	-4242.5	6938.238	-3315	6938.238	-10805
6938.239	-5900	6938.239	-9392.5	6938.239	-4290	6938.239	-3385	6938.239	-10995
6938.24	-6072.5	6938.24	-9580	6938.24	-4355	6938.24	-3530	6938.24	-11107.5
6938.241	-6220	6938.241	-9705	6938.241	-4400	6938.241	-3632.5	6938.241	-11235
6938.242	-6287.5	6938.242	-9747.5	6938.242	-4400	6938.242	-3645	6938.242	-11265
6938.243	-6447.5	6938.243	-9830	6938.243	-4362.5	6938.243	-3632.5	6938.243	-11320
6938.244	-6432.5	6938.244	-9885	6938.244	-4332.5	6938.244	-3540	6938.244	-11365
6938.245	-6390	6938.245	-9910	6938.245	-4415	6938.245	-3575	6938.245	-11300
6938.246	-6322.5	6938.246	-9880	6938.246	-4345	6938.246	-3535	6938.246	-11212.5
6938.247	-6277.5	6938.247	-9867.5	6938.247	-4352.5	6938.247	-3332.5	6938.247	-11142.5
6938.248	-6210	6938.248	-9877.5	6938.248	-4285	6938.248	-3317.5	6938.248	-11090
6938.249	-6210	6938.249	-9850	6938.249	-4345	6938.249	-3290	6938.249	-11017.5
6938.25	-6092.5	6938.25	-9830	6938.25	-4245	6938.25	-3242.5	6938.25	-10877.5
6938.251	-6070	6938.251	-9790	6938.251	-4287.5	6938.251	-3170	6938.251	-10812.5
6938.252	-6025	6938.252	-9765	6938.252	-4337.5	6938.252	-3262.5	6938.252	-10822.5
6938.253	-6032.5	6938.253	-9775	6938.253	-4297.5	6938.253	-3257.5	6938.253	-10745
6938.254	-6075	6938.254	-9867.5	6938.254	-4332.5	6938.254	-3230	6938.254	-10762.5
6938.255	-6135	6938.255	-9875	6938.255	-4372.5	6938.255	-3315	6938.255	-10845
6938.256	-6257.5	6938.256	-9935	6938.256	-4407.5	6938.256	-3345	6938.256	-10840
6938.257	-6360	6938.257	-9947.5	6938.257	-4452.5	6938.257	-3317.5	6938.257	-10850
6938.258	-6465	6938.258	-10075	6938.258	-4522.5	6938.258	-3397.5	6938.258	-10950
6938.259	-6565	6938.259	-10060	6938.259	-4595	6938.259	-3407.5	6938.259	-11005
6938.26	-6690	6938.26	-10122.5	6938.26	-4555	6938.26	-3485	6938.26	-11112.5
6938.261	-6785	6938.261	-10180	6938.261	-4617.5	6938.261	-3402.5	6938.261	-11152.5
6938.262	-6775	6938.262	-10212.5	6938.262	-4622.5	6938.262	-3312.5	6938.262	-11080
6938.263	-6805	6938.263	-10170	6938.263	-4627.5	6938.263	-3342.5	6938.263	-11010
6938.264	-6792.5	6938.264	-10090	6938.264	-4552.5	6938.264	-3175	6938.264	-11022.5
6938.265	-6640	6938.265	-10050	6938.265	-4500	6938.265	-3077.5	6938.265	-10920
6938.266	-6572.5	6938.266	-9995	6938.266	-4557.5	6938.266	-3037.5	6938.266	-10842.5
6938.267	-6530	6938.267	-9940	6938.267	-4470	6938.267	-2867.5	6938.267	-10752.5
6938.268	-6312.5	6938.268	-9877.5	6938.268	-4417.5	6938.268	-2820	6938.268	-10515
6938.269	-6255	6938.269	-9755	6938.269	-4510	6938.269	-2745	6938.269	-10437.5
6938.27	-6150	6938.27	-9695	6938.27	-4427.5	6938.27	-2607.5	6938.27	-10280
6938.271	-6025	6938.271	-9615	6938.271	-4372.5	6938.271	-2582.5	6938.271	-10197.5
6938.272	-5955	6938.272	-9550	6938.272	-4392.5	6938.272	-2320	6938.272	-10092.5
6938.273	-5925	6938.273	-9560	6938.273	-4395	6938.273	-2435	6938.273	-10022.5
6938.274	-5920	6938.274	-9522.5	6938.274	-4385	6938.274	-2432.5	6938.274	-9915
6938.275	-6002.5	6938.275	-9560	6938.275	-4427.5	6938.275	-2447.5	6938.275	-9995
6938.276	-6057.5	6938.276	-9480	6938.276	-4460	6938.276	-2402.5	6938.276	-9962.5
6938.277	-6077.5	6938.277	-9525	6938.277	-4545	6938.277	-2447.5	6938.277	-10002.5
6938.278	-6207.5	6938.278	-9527.5	6938.278	-4575	6938.278	-2455	6938.278	-10062.5
6938.279	-6267.5	6938.279	-9617.5	6938.279	-4572.5	6938.279	-2492.5	6938.279	-10055
6938.28	-6442.5	6938.28	-9562.5	6938.28	-4560	6938.28	-2410	6938.28	-10097.5
6938.281	-6422.5	6938.281	-9560	6938.281	-4652.5	6938.281	-2357.5	6938.281	-10037.5
6938.282	-6402.5	6938.282	-9500	6938.282	-4642.5	6938.282	-2345	6938.282	-10027.5
6938.283	-6417.5	6938.283	-9485	6938.283	-4660	6938.283	-2097.5	6938.283	-9957.5
6938.284	-6417.5	6938.284	-9485	6938.284	-4587.5	6938.284	-2057.5	6938.284	-9895
6938.285	-6262.5	6938.285	-9367.5	6938.285	-4590	6938.285	-1955	6938.285	-9795
6938.286	-6135	6938.286	-9290	6938.286	-4567.5	6938.286	-1925	6938.286	-9627.5
6938.287	-6025	6938.287	-9225	6938.287	-4607.5	6938.287	-1837.5	6938.287	-9540
6938.288	-5837.5	6938.288	-9090	6938.288	-4482.5	6938.288	-1710	6938.288	-9312.5
6938.289	-5780	6938.289	-9005	6938.289	-4500	6938.289	-1667.5	6938.289	-9292.5
6938.29	-5627.5	6938.29	-8882.5	6938.29	-4355	6938.29	-1507.5	6938.29	-9045
6938.291	-5530	6938.291	-8895	6938.291	-4405	6938.291	-1400	6938.291	-8932.5
6938.292	-5530	6938.292	-8802.5	6938.292	-4397.5	6938.292	-1412.5	6938.292	-8807.5
6938.293	-5412.5	6938.293	-8742.5	6938.293	-4407.5	6938.293	-1410	6938.293	-8722.5
6938.294	-5402.5	6938.294	-8650	6938.294	-4487.5	6938.294	-1365	6938.294	-8637.5
6938.295	-5495	6938.295	-8645	6938.295	-4505	6938.295	-1325	6938.295	-8655
6938.296	-5497.5	6938.296	-8717.5	6938.296	-4497.5	6938.296	-1375	6938.296	-8622.5
6938.297	-5662.5	6938.297	-8690	6938.297	-4670	6938.297	-1372.5	6938.297	-8592.5
6938.298	-5717.5	6938.298	-8735	6938.298	-4667.5	6938.298	-1257.5	6938.298	-8595
6938.299	-5807.5	6938.299	-8707.5	6938.299	-4630	6938.299	-1415	6938.299	-8662.5
6938.3	-5870	6938.3	-8587.5	6938.3	-4722.5	6938.3	-1312.5	6938.3	-8660
6938.301	-5985	6938.301	-8640	6938.301	-4740	6938.301	-1262.5	6938.301	-8650
6938.302	-5990	6938.302	-8592.5	6938.302	-4752.5	6938.302	-1265	6938.302	-8547.5
6938.303	-5997.5	6938.303	-8625	6938.303	-4715	6938.303	-1265	6938.303	-8532.5
6938.304	-5952.5	6938.304	-8527.5	6938.304	-4662.5	6938.304	-1142.5	6938.304	-8370
6938.305	-5847.5	6938.305	-8395	6938.305	-4607.5	6938.305	-1062.5	6938.305	-8217.5
6938.306	-5692.5	6938.306	-8397.5	6938.306	-4537.5	6938.306	-1007.5	6938.306	-8090
6938.307	-5602.5	6938.307	-8207.5	6938.307	-4555	6938.307	-762.5	6938.307	-7917.5
6938.308	-5462.5	6938.308	-8095	6938.308	-4505	6938.308	-757.5	6938.308	-7715
6938.309	-5382.5	6938.309	-7997.5	6938.309	-4535	6938.309	-722.5	6938.309	-7545
6938.31	-5177.5	6938.31	-7845	6938.31	-4460	6938.31	-640	6938.31	-7360
6938.311	-5065	6938.311	-7762.5	6938.311	-4377.5	6938.311	-450	6938.311	-7220
6938.312	-5062.5	6938.312	-7652.5	6938.312	-4400	6938.312	-585	6938.312	-7097.5
6938.313	-5045	6938.313	-7645	6938.313	-4490	6938.313	-585	6938.313	-6905
6938.314	-5037.5	6938.314	-7602.5	6938.314	-4487.5	6938.314	-400	6938.314	-6830
6938.315	-5040	6938.315	-7532.5	6938.315	-4515	6938.315	-580	6938.315	-6767.5
6938.316	-5237.5	6938.316	-7470	6938.316	-4497.5	6938.316	-642.5	6938.316	-6735
6938.317	-5272.5	6938.317	-7455	6938.317	-4577.5	6938.317	-612.5	6938.317	-6597.5
6938.318	-5407.5	6938.318	-7407.5	6938.318	-4635	6938.318	-582.5	6938.318	-6677.5
6938.319	-5502.5	6938.319	-7405	6938.319	-4667.5	6938.319	-672.5	6938.319	-6732.5
6938.32	-5630	6938.32	-7417.5	6938.32	-4737.5	6938.32	-732.5	6938.32	-6682.5
6938.321	-5690	6938.321	-7447.5	6938.321	-4692.5	6938.321	-620	6938.321	-6642.5
6938.322	-5637.5	6938.322	-7345	6938.322	-4680	6938.322	-610	6938.322	-6562.5
6938.323	-5737.5	6938.323	-7227.5	6938.323	-4597.5	6938.323	-545	6938.323	-6452.5
6938.324	-5672.5	6938.324	-7140	6938.324	-4600	6938.324	-545	6938.324	-6322.5
6938.325	-5537.5	6938.325	-7062.5	6938.325	-4510	6938.325	-475	6938.325	-6102.5
6938.326	-5465	6938.326	-6885	6938.326	-4475	6938.326	-442.5	6938.326	-6012.5
6938.327	-5417.5	6938.327	-6692.5	6938.327	-4437.5	6938.327	-305	6938.327	-5770
6938.328	-5232.5	6938.328	-6497.5	6938.328	-4410	6938.328	-237.5	6938.328	-5530
6938.329	-5075	6938.329	-6387.5	6938.329	-4257.5	6938.329	-120	6938.329	-5422.5
6938.33	-5035	6938.33	-6230	6938.33	-4210	6938.33	-150	6938.33	-5177.5
6938.331	-4882.5	6938.331	-6055	6938.331	-4137.5	6938.331	-172.5	6938.331	-4987.5
6938.332	-4805	6938.332	-5925	6938.332	-4145	6938.332	-37.5	6938.332	-4847.5
6938.333	-4770	6938.333	-5790	6938.333	-4067.5	6938.333	-2.5	6938.333	-4725
6938.334	-4807.5	6938.334	-5635	6938.334	-4067.5	6938.334	-125	6938.334	-4625
6938.335	-4855	6938.335	-5562.5	6938.335	-4042.5	6938.335	-250	6938.335	-4627.5
6938.336	-4907.5	6938.336	-5530	6938.336	-4082.5	6938.336	-87.5	6938.336	-4585
6938.337	-5005	6938.337	-5455	6938.337	-4030	6938.337	-105	6938.337	-4567.5
6938.338	-5130	6938.338	-5367.5	6938.338	-4070	6938.338	-185	6938.338	-4597.5
6938.339	-5300	6938.339	-5330	6938.339	-3975	6938.339	-275	6938.339	-4662.5
6938.34	-5387.5	6938.34	-5272.5	6938.34	-4075	6938.34	-302.5	6938.34	-4667.5
6938.341	-5437.5	6938.341	-5170	6938.341	-3962.5	6938.341	-217.5	6938.341	-4620
6938.342	-5482.5	6938.342	-5070	6938.342	-3970	6938.342	-360	6938.342	-4575
6938.343	-5405	6938.343	-4922.5	6938.343	-3900	6938.343	-272.5	6938.343	-4587.5
6938.344	-5490	6938.344	-4850	6938.344	-3847.5	6938.344	-312.5	6938.344	-4475
6938.345	-5417.5	6938.345	-4715	6938.345	-3695	6938.345	-222.5	6938.345	-4290
6938.346	-5342.5	6938.346	-4487.5	6938.346	-3617.5	6938.346	-97.5	6938.346	-4127.5
6938.347	-5242.5	6938.347	-4285	6938.347	-3487.5	6938.347	-167.5	6938.347	-3892.5
6938.348	-5090	6938.348	-3995	6938.348	-3385	6938.348	-90	6938.348	-3585
6938.349	-5017.5	6938.349	-3860	6938.349	-3257.5	6938.349	22.5	6938.349	-3450
6938.35	-4857.5	6938.35	-3685	6938.35	-3205	6938.35	12.5	6938.35	-3257.5
6938.351	-4775	6938.351	-3600	6938.351	-3097.5	6938.351	50	6938.351	-3057.5
6938.352	-4717.5	6938.352	-3497.5	6938.352	-3012.5	6938.352	-2.5	6938.352	-2862.5
6938.353	-4660	6938.353	-3352.5	6938.353	-2952.5	6938.353	-32.5	6938.353	-2595
6938.354	-4645	6938.354	-3290	6938.354	-2867.5	6938.354	2.5	6938.354	-2467.5
6938.355	-4712.5	6938.355	-3230	6938.355	-2772.5	6938.355	-20	6938.355	-2325
6938.356	-4802.5	6938.356	-3172.5	6938.356	-2750	6938.356	-135	6938.356	-2200
6938.357	-4865	6938.357	-3115	6938.357	-2720	6938.357	-180	6938.357	-2052.5
6938.358	-5000	6938.358	-3102.5	6938.358	-2652.5	6938.358	-252.5	6938.358	-2007.5
6938.359	-5040	6938.359	-3057.5	6938.359	-2745	6938.359	-312.5	6938.359	-1822.5
6938.36	-5152.5	6938.36	-3012.5	6938.36	-2730	6938.36	-440	6938.36	-1820
6938.361	-5230	6938.361	-2945	6938.361	-2625	6938.361	-467.5	6938.361	-1720
6938.362	-5220	6938.362	-2832.5	6938.362	-2525	6938.362	-487.5	6938.362	-1512.5
6938.363	-5375	6938.363	-2807.5	6938.363	-2497.5	6938.363	-475	6938.363	-1345
6938.364	-5270	6938.364	-2700	6938.364	-2382.5	6938.364	-547.5	6938.364	-1122.5
6938.365	-5117.5	6938.365	-2530	6938.365	-2262.5	6938.365	-357.5	6938.365	-835
6938.366	-5137.5	6938.366	-2467.5	6938.366	-2282.5	6938.366	-465	6938.366	-570
6938.367	-4960	6938.367	-2347.5	6938.367	-2125	6938.367	-262.5	6938.367	-302.5
6938.368	-4802.5	6938.368	-2197.5	6938.368	-2015	6938.368	-245	6938.368	-5
6938.369	-4745	6938.369	-2135	6938.369	-1925	6938.369	-267.5	6938.369	250
6938.37	-4700	6938.37	-2032.5	6938.37	-1812.5	6938.37	-330	6938.37	500
6938.371	-4542.5	6938.371	-1917.5	6938.371	-1672.5	6938.371	-325	6938.371	780
6938.372	-4570	6938.372	-1787.5	6938.372	-1615	6938.372	-405	6938.372	1032.5
6938.373	-4452.5	6938.373	-1777.5	6938.373	-1542.5	6938.373	-400	6938.373	1322.5
6938.374	-4485	6938.374	-1660	6938.374	-1517.5	6938.374	-345	6938.374	1532.5
6938.375	-4510	6938.375	-1700	6938.375	-1502.5	6938.375	-520	6938.375	1665
6938.376	-4597.5	6938.376	-1602.5	6938.376	-1447.5	6938.376	-485	6938.376	1842.5
6938.377	-4672.5	6938.377	-1597.5	6938.377	-1432.5	6938.377	-530	6938.377	1940
6938.378	-4772.5	6938.378	-1615	6938.378	-1405	6938.378	-660	6938.378	2040
6938.379	-4880	6938.379	-1625	6938.379	-1415	6938.379	-675	6938.379	2162.5
6938.38	-4992.5	6938.38	-1600	6938.38	-1362.5	6938.38	-775	6938.38	2332.5
6938.381	-5045	6938.381	-1572.5	6938.381	-1350	6938.381	-885	6938.381	2410
6938.382	-5072.5	6938.382	-1597.5	6938.382	-1297.5	6938.382	-817.5	6938.382	2635
6938.383	-5060	6938.383	-1525	6938.383	-1282.5	6938.383	-900	6938.383	2815
6938.384	-5047.5	6938.384	-1485	6938.384	-1145	6938.384	-855	6938.384	3015
6938.385	-4950	6938.385	-1342.5	6938.385	-1070	6938.385	-860	6938.385	3197.5
6938.386	-4827.5	6938.386	-1285	6938.386	-975	6938.386	-870	6938.386	3387.5
6938.387	-4677.5	6938.387	-1175	6938.387	-867.5	6938.387	-815	6938.387	3542.5
6938.388	-4595	6938.388	-1065	6938.388	-880	6938.388	-677.5	6938.388	3732.5
6938.389	-4475	6938.389	-1050	6938.389	-827.5	6938.389	-655	6938.389	3890
6938.39	-4340	6938.39	-950	6938.39	-665	6938.39	-692.5	6938.39	4100
6938.391	-4210	6938.391	-902.5	6938.391	-587.5	6938.391	-667.5	6938.391	4227.5
6938.392	-4170	6938.392	-827.5	6938.392	-555	6938.392	-532.5	6938.392	4332.5
6938.393	-4080	6938.393	-815	6938.393	-505	6938.393	-565	6938.393	4437.5
6938.394	-4047.5	6938.394	-720	6938.394	-495	6938.394	-697.5	6938.394	4552.5
6938.395	-4170	6938.395	-735	6938.395	-517.5	6938.395	-712.5	6938.395	4595
6938.396	-4160	6938.396	-762.5	6938.396	-527.5	6938.396	-742.5	6938.396	4680
6938.397	-4182.5	6938.397	-820	6938.397	-510	6938.397	-747.5	6938.397	4737.5
6938.398	-4320	6938.398	-910	6938.398	-612.5	6938.398	-880	6938.398	4745
6938.399	-4342.5	6938.399	-837.5	6938.399	-557.5	6938.399	-977.5	6938.399	4825
6938.4	-4427.5	6938.4	-880	6938.4	-620	6938.4	-1042.5	6938.4	4772.5
6938.401	-4432.5	6938.401	-837.5	6938.401	-560	6938.401	-1152.5	6938.401	4865
6938.402	-4352.5	6938.402	-852.5	6938.402	-520	6938.402	-1067.5	6938.402	4977.5
6938.403	-4337.5	6938.403	-872.5	6938.403	-462.5	6938.403	-1057.5	6938.403	5085
6938.404	-4342.5	6938.404	-847.5	6938.404	-395	6938.404	-937.5	6938.404	5222.5
6938.405	-4215	6938.405	-765	6938.405	-352.5	6938.405	-1017.5	6938.405	5340
6938.406	-4045	6938.406	-717.5	6938.406	-262.5	6938.406	-815	6938.406	5527.5
6938.407	-3870	6938.407	-640	6938.407	-255	6938.407	-830	6938.407	5655
6938.408	-3680	6938.408	-582.5	6938.408	-122.5	6938.408	-730	6938.408	5860
6938.409	-3615	6938.409	-530	6938.409	-97.5	6938.409	-677.5	6938.409	5865
6938.41	-3435	6938.41	-417.5	6938.41	-55	6938.41	-672.5	6938.41	5997.5
6938.411	-3305	6938.411	-352.5	6938.411	-22.5	6938.411	-632.5	6938.411	6112.5
6938.412	-3220	6938.412	-310	6938.412	7.5	6938.412	-697.5	6938.412	6187.5
6938.413	-3172.5	6938.413	-292.5	6938.413	-5	6938.413	-750	6938.413	6327.5
6938.414	-3120	6938.414	-200	6938.414	12.5	6938.414	-752.5	6938.414	6307.5
6938.415	-3180	6938.415	-270	6938.415	-40	6938.415	-732.5	6938.415	6290
6938.416	-3217.5	6938.416	-367.5	6938.416	15	6938.416	-807.5	6938.416	6310
6938.417	-3282.5	6938.417	-332.5	6938.417	-55	6938.417	-852.5	6938.417	6210
6938.418	-3290	6938.418	-467.5	6938.418	-80	6938.418	-985	6938.418	6117.5
6938.419	-3335	6938.419	-512.5	6938.419	-62.5	6938.419	-985	6938.419	6085
6938.42	-3402.5	6938.42	-507.5	6938.42	-137.5	6938.42	-1095	6938.42	5997.5
6938.421	-3495	6938.421	-582.5	6938.421	-72.5	6938.421	-1117.5	6938.421	5952.5
6938.422	-3485	6938.422	-542.5	6938.422	-120	6938.422	-1130	6938.422	5952.5
6938.423	-3425	6938.423	-575	6938.423	-90	6938.423	-1112.5	6938.423	5965
6938.424	-3297.5	6938.424	-495	6938.424	-80	6938.424	-1055	6938.424	5925
6938.425	-3202.5	6938.425	-512.5	6938.425	-27.5	6938.425	-1020	6938.425	5967.5
6938.426	-3112.5	6938.426	-412.5	6938.426	67.5	6938.426	-912.5	6938.426	6010
6938.427	-2947.5	6938.427	-370	6938.427	75	6938.427	-890	6938.427	6075
6938.428	-2747.5	6938.428	-240	6938.428	105	6938.428	-882.5	6938.428	6160
6938.429	-2647.5	6938.429	-180	6938.429	190	6938.429	-735	6938.429	6205
6938.43	-2465	6938.43	-122.5	6938.43	285	6938.43	-735	6938.43	6290
6938.431	-2287.5	6938.431	-35	6938.431	365	6938.431	-645	6938.431	6357.5
6938.432	-2267.5	6938.432	-75	6938.432	275	6938.432	-790	6938.432	6335
6938.433	-2130	6938.433	-57.5	6938.433	382.5	6938.433	-752.5	6938.433	6397.5
6938.434	-2100	6938.434	10	6938.434	362.5	6938.434	-785	6938.434	6392.5
6938.435	-2132.5	6938.435	-42.5	6938.435	262.5	6938.435	-815	6938.435	6282.5
6938.436	-2157.5	6938.436	-102.5	6938.436	257.5	6938.436	-837.5	6938.436	6190
6938.437	-2210	6938.437	-90	6938.437	155	6938.437	-920	6938.437	6210
6938.438	-2307.5	6938.438	-187.5	6938.438	157.5	6938.438	-972.5	6938.438	6037.5
6938.439	-2345	6938.439	-190	6938.439	177.5	6938.439	-1175	6938.439	5942.5
6938.44	-2387.5	6938.44	-240	6938.44	125	6938.44	-1095	6938.44	5862.5
6938.441	-2492.5	6938.441	-290	6938.441	135	6938.441	-1065	6938.441	5767.5
6938.442	-2422.5	6938.442	-280	6938.442	170	6938.442	-1087.5	6938.442	5752.5
6938.443	-2475	6938.443	-277.5	6938.443	187.5	6938.443	-1052.5	6938.443	5632.5
6938.444	-2390	6938.444	-235	6938.444	190	6938.444	-1150	6938.444	5695
6938.445	-2300	6938.445	-210	6938.445	192.5	6938.445	-1042.5	6938.445	5710
6938.446	-2112.5	6938.446	-92.5	6938.446	290	6938.446	-880	6938.446	5747.5
6938.447	-1900	6938.447	-77.5	6938.447	382.5	6938.447	-802.5	6938.447	5842.5
6938.448	-1720	6938.448	15	6938.448	382.5	6938.448	-877.5	6938.448	5905
6938.449	-1660	6938.449	57.5	6938.449	455	6938.449	-845	6938.449	5942.5
6938.45	-1475	6938.45	97.5	6938.45	402.5	6938.45	-770	6938.45	5995
6938.451	-1395	6938.451	152.5	6938.451	465	6938.451	-755	6938.451	6077.5
6938.452	-1337.5	6938.452	90	6938.452	517.5	6938.452	-777.5	6938.452	6090
6938.453	-1210	6938.453	197.5	6938.453	527.5	6938.453	-810	6938.453	6040
6938.454	-1170	6938.454	192.5	6938.454	567.5	6938.454	-770	6938.454	6022.5
6938.455	-1265	6938.455	112.5	6938.455	427.5	6938.455	-807.5	6938.455	5897.5
6938.456	-1277.5	6938.456	127.5	6938.456	410	6938.456	-752.5	6938.456	5815
6938.457	-1345	6938.457	185	6938.457	420	6938.457	-917.5	6938.457	5675
6938.458	-1445	6938.458	95	6938.458	382.5	6938.458	-992.5	6938.458	5530
6938.459	-1505	6938.459	85	6938.459	345	6938.459	-1075	6938.459	5387.5
6938.46	-1595	6938.46	45	6938.46	342.5	6938.46	-1105	6938.46	5290
6938.461	-1657.5	6938.461	-2.5	6938.461	280	6938.461	-1175	6938.461	5145
6938.462	-1580	6938.462	32.5	6938.462	352.5	6938.462	-1102.5	6938.462	5147.5
6938.463	-1612.5	6938.463	-10	6938.463	347.5	6938.463	-1112.5	6938.463	5067.5
6938.464	-1510	6938.464	50	6938.464	330	6938.464	-1177.5	6938.464	4965
6938.465	-1427.5	6938.465	117.5	6938.465	450	6938.465	-1012.5	6938.465	5017.5
6938.466	-1345	6938.466	160	6938.466	482.5	6938.466	-945	6938.466	5127.5
6938.467	-1165	6938.467	140	6938.467	435	6938.467	-970	6938.467	5122.5
6938.468	-982.5	6938.468	260	6938.468	505	6938.468	-827.5	6938.468	5240
6938.469	-905	6938.469	310	6938.469	590	6938.469	-785	6938.469	5260
6938.47	-727.5	6938.47	382.5	6938.47	627.5	6938.47	-820	6938.47	5275
6938.471	-630	6938.471	432.5	6938.471	705	6938.471	-710	6938.471	5347.5
6938.472	-572.5	6938.472	480	6938.472	725	6938.472	-677.5	6938.472	5357.5
6938.473	-477.5	6938.473	507.5	6938.473	690	6938.473	-665	6938.473	5357.5
6938.474	-502.5	6938.474	462.5	6938.474	642.5	6938.474	-712.5	6938.474	5352.5
6938.475	-512.5	6938.475	372.5	6938.475	647.5	6938.475	-885	6938.475	5290
6938.476	-522.5	6938.476	412.5	6938.476	597.5	6938.476	-960	6938.476	5205
6938.477	-577.5	6938.477	432.5	6938.477	527.5	6938.477	-837.5	6938.477	5082.5
6938.478	-765	6938.478	330	6938.478	562.5	6938.478	-912.5	6938.478	4940
6938.479	-810	6938.479	307.5	6938.479	522.5	6938.479	-990	6938.479	4825
6938.48	-902.5	6938.48	245	6938.48	472.5	6938.48	-1137.5	6938.48	4722.5
6938.481	-937.5	6938.481	192.5	6938.481	530	6938.481	-1187.5	6938.481	4592.5
6938.482	-910	6938.482	260	6938.482	440	6938.482	-1010	6938.482	4630
6938.483	-942.5	6938.483	170	6938.483	495	6938.483	-1152.5	6938.483	4540
6938.484	-895	6938.484	190	6938.484	492.5	6938.484	-1060	6938.484	4495
6938.485	-755	6938.485	290	6938.485	527.5	6938.485	-927.5	6938.485	4605
6938.486	-687.5	6938.486	320	6938.486	522.5	6938.486	-905	6938.486	4620
6938.487	-530	6938.487	390	6938.487	707.5	6938.487	-782.5	6938.487	4707.5
6938.488	-400	6938.488	485	6938.488	677.5	6938.488	-857.5	6938.488	4757.5
6938.489	-247.5	6938.489	532.5	6938.489	755	6938.489	-800	6938.489	4825
6938.49	-130	6938.49	567.5	6938.49	792.5	6938.49	-770	6938.49	4907.5
6938.491	-27.5	6938.491	627.5	6938.491	805	6938.491	-707.5	6938.491	4992.5
6938.492	-42.5	6938.492	725	6938.492	707.5	6938.492	-810	6938.492	5002.5
6938.493	100	6938.493	662.5	6938.493	840	6938.493	-750	6938.493	5002.5
6938.494	100	6938.494	592.5	6938.494	837.5	6938.494	-792.5	6938.494	5007.5
6938.495	5	6938.495	610	6938.495	805	6938.495	-942.5	6938.495	4912.5
6938.496	5	6938.496	605	6938.496	797.5	6938.496	-890	6938.496	4877.5
6938.497	12.5	6938.497	585	6938.497	730	6938.497	-842.5	6938.497	4857.5
6938.498	-60	6938.498	485	6938.498	745	6938.498	-1000	6938.498	4767.5
6938.499	-180	6938.499	490	6938.499	662.5	6938.499	-1027.5	6938.499	4605
6938.5	-280	6938.5	392.5	6938.5	797.5	6938.5	-1135	6938.5	4505
6938.501	-395	6938.501	447.5	6938.501	627.5	6938.501	-1115	6938.501	4405
6938.502	-375	6938.502	382.5	6938.502	602.5	6938.502	-1017.5	6938.502	4330
6938.503	-415	6938.503	410	6938.503	665	6938.503	-1192.5	6938.503	4302.5
6938.504	-267.5	6938.504	400	6938.504	772.5	6938.504	-1127.5	6938.504	4305
6938.505	-112.5	6938.505	552.5	6938.505	752.5	6938.505	-942.5	6938.505	4367.5
6938.506	-87.5	6938.506	577.5	6938.506	792.5	6938.506	-910	6938.506	4432.5
6938.507	22.5	6938.507	637.5	6938.507	757.5	6938.507	-1080	6938.507	4540
6938.508	160	6938.508	712.5	6938.508	847.5	6938.508	-935	6938.508	4650
6938.509	312.5	6938.509	740	6938.509	932.5	6938.509	-887.5	6938.509	4695
6938.51	467.5	6938.51	737.5	6938.51	927.5	6938.51	-750	6938.51	4725
6938.511	502.5	6938.511	797.5	6938.511	932.5	6938.511	-722.5	6938.511	4830
6938.512	565	6938.512	762.5	6938.512	1022.5	6938.512	-852.5	6938.512	4895
6938.513	560	6938.513	802.5	6938.513	992.5	6938.513	-835	6938.513	4925
6938.514	637.5	6938.514	845	6938.514	1005	6938.514	-827.5	6938.514	4932.5
6938.515	580	6938.515	817.5	6938.515	965	6938.515	-960	6938.515	4822.5
6938.516	500	6938.516	847.5	6938.516	915	6938.516	-1045	6938.516	4782.5
6938.517	437.5	6938.517	810	6938.517	857.5	6938.517	-920	6938.517	4762.5
6938.518	335	6938.518	762.5	6938.518	837.5	6938.518	-1045	6938.518	4612.5
6938.519	302.5	6938.519	750	6938.519	837.5	6938.519	-1085	6938.519	4547.5
6938.52	197.5	6938.52	785	6938.52	757.5	6938.52	-1112.5	6938.52	4460
6938.521	120	6938.521	692.5	6938.521	750	6938.521	-1157.5	6938.521	4330
6938.522	145	6938.522	627.5	6938.522	800	6938.522	-1257.5	6938.522	4412.5
6938.523	115	6938.523	635	6938.523	770	6938.523	-1175	6938.523	4370
6938.524	155	6938.524	610	6938.524	800	6938.524	-1227.5	6938.524	4415
6938.525	237.5	6938.525	687.5	6938.525	817.5	6938.525	-1252.5	6938.525	4407.5
6938.526	417.5	6938.526	720	6938.526	940	6938.526	-1025	6938.526	4550
6938.527	505	6938.527	822.5	6938.527	985	6938.527	-977.5	6938.527	4635
6938.528	680	6938.528	957.5	6938.528	1072.5	6938.528	-837.5	6938.528	4710
6938.529	772.5	6938.529	1010	6938.529	1125	6938.529	-825	6938.529	4807.5
6938.53	890	6938.53	1082.5	6938.53	1167.5	6938.53	-817.5	6938.53	4917.5
6938.531	982.5	6938.531	1120	6938.531	1122.5	6938.531	-710	6938.531	4940
6938.532	1017.5	6938.532	1172.5	6938.532	1145	6938.532	-955	6938.532	4907.5
6938.533	1135	6938.533	1112.5	6938.533	1162.5	6938.533	-807.5	6938.533	5005
6938.534	1090	6938.534	1182.5	6938.534	1152.5	6938.534	-802.5	6938.534	5012.5
6938.535	1185	6938.535	1140	6938.535	1122.5	6938.535	-847.5	6938.535	4967.5
6938.536	1070	6938.536	1035	6938.536	1057.5	6938.536	-975	6938.536	4847.5
6938.537	1047.5	6938.537	1085	6938.537	1077.5	6938.537	-1047.5	6938.537	4847.5
6938.538	882.5	6938.538	1005	6938.538	1020	6938.538	-1090	6938.538	4710
6938.539	810	6938.539	995	6938.539	1047.5	6938.539	-1135	6938.539	4595
6938.54	730	6938.54	890	6938.54	1067.5	6938.54	-1180	6938.54	4497.5
6938.541	687.5	6938.541	890	6938.541	1015	6938.541	-1120	6938.541	4477.5
6938.542	682.5	6938.542	870	6938.542	910	6938.542	-1075	6938.542	4475
6938.543	680	6938.543	897.5	6938.543	985	6938.543	-1087.5	6938.543	4402.5
6938.544	772.5	6938.544	935	6938.544	1037.5	6938.544	-1005	6938.544	4417.5
6938.545	785	6938.545	967.5	6938.545	1055	6938.545	-1080	6938.545	4452.5
6938.546	922.5	6938.546	1040	6938.546	1182.5	6938.546	-925	6938.546	4520
6938.547	997.5	6938.547	1080	6938.547	1190	6938.547	-950	6938.547	4570
6938.548	1190	6938.548	1135	6938.548	1240	6938.548	-795	6938.548	4702.5
6938.549	1267.5	6938.549	1182.5	6938.549	1197.5	6938.549	-840	6938.549	4780
6938.55	1362.5	6938.55	1312.5	6938.55	1302.5	6938.55	-857.5	6938.55	4850
6938.551	1557.5	6938.551	1355	6938.551	1242.5	6938.551	-652.5	6938.551	4940
6938.552	1557.5	6938.552	1345	6938.552	1332.5	6938.552	-760	6938.552	4912.5
6938.553	1655	6938.553	1352.5	6938.553	1332.5	6938.553	-682.5	6938.553	4952.5
6938.554	1695	6938.554	1370	6938.554	1330	6938.554	-752.5	6938.554	4987.5
6938.555	1647.5	6938.555	1395	6938.555	1312.5	6938.555	-805	6938.555	4950
6938.556	1600	6938.556	1337.5	6938.556	1185	6938.556	-785	6938.556	4895
6938.557	1517.5	6938.557	1380	6938.557	1227.5	6938.557	-875	6938.557	4765
6938.558	1357.5	6938.558	1340	6938.558	1127.5	6938.558	-902.5	6938.558	4645
6938.559	1322.5	6938.559	1230	6938.559	1195	6938.559	-1032.5	6938.559	4580
6938.56	1202.5	6938.56	1182.5	6938.56	1172.5	6938.56	-1082.5	6938.56	4490
6938.561	1080	6938.561	1160	6938.561	1035	6938.561	-1127.5	6938.561	4412.5
6938.562	1100	6938.562	1137.5	6938.562	1132.5	6938.562	-1055	6938.562	4400
6938.563	1112.5	6938.563	1162.5	6938.563	1137.5	6938.563	-1102.5	6938.563	4345
6938.564	1147.5	6938.564	1132.5	6938.564	1147.5	6938.564	-1030	6938.564	4340
6938.565	1240	6938.565	1167.5	6938.565	1167.5	6938.565	-1015	6938.565	4400
6938.566	1412.5	6938.566	1270	6938.566	1310	6938.566	-877.5	6938.566	4480
6938.567	1512.5	6938.567	1312.5	6938.567	1325	6938.567	-842.5	6938.567	4575
6938.568	1682.5	6938.568	1395	6938.568	1440	6938.568	-802.5	6938.568	4600
6938.569	1680	6938.569	1422.5	6938.569	1410	6938.569	-657.5	6938.569	4642.5
6938.57	1875	6938.57	1480	6938.57	1415	6938.57	-690	6938.57	4755
6938.571	1975	6938.571	1512.5	6938.571	1425	6938.571	-705	6938.571	4817.5
6938.572	2030	6938.572	1545	6938.572	1472.5	6938.572	-652.5	6938.572	4880
6938.573	2155	6938.573	1582.5	6938.573	1475	6938.573	-740	6938.573	4977.5
6938.574	2122.5	6938.574	1572.5	6938.574	1492.5	6938.574	-640	6938.574	4885
6938.575	2110	6938.575	1522.5	6938.575	1355	6938.575	-805	6938.575	4852.5
6938.576	2072.5	6938.576	1580	6938.576	1355	6938.576	-807.5	6938.576	4777.5
6938.577	1932.5	6938.577	1495	6938.577	1400	6938.577	-762.5	6938.577	4732.5
6938.578	1842.5	6938.578	1412.5	6938.578	1340	6938.578	-950	6938.578	4605
6938.579	1770	6938.579	1350	6938.579	1357.5	6938.579	-997.5	6938.579	4520
6938.58	1660	6938.58	1352.5	6938.58	1270	6938.58	-977.5	6938.58	4432.5
6938.581	1540	6938.581	1260	6938.581	1302.5	6938.581	-1057.5	6938.581	4285
6938.582	1600	6938.582	1270	6938.582	1247.5	6938.582	-970	6938.582	4322.5
6938.583	1520	6938.583	1257.5	6938.583	1250	6938.583	-915	6938.583	4245
6938.584	1545	6938.584	1220	6938.584	1242.5	6938.584	-985	6938.584	4205
6938.585	1700	6938.585	1342.5	6938.585	1340	6938.585	-915	6938.585	4305
6938.586	1792.5	6938.586	1375	6938.586	1370	6938.586	-882.5	6938.586	4390
6938.587	1865	6938.587	1480	6938.587	1457.5	6938.587	-775	6938.587	4442.5
6938.588	2100	6938.588	1550	6938.588	1485	6938.588	-745	6938.588	4520
6938.589	2187.5	6938.589	1567.5	6938.589	1555	6938.589	-697.5	6938.589	4607.5
6938.59	2247.5	6938.59	1545	6938.59	1500	6938.59	-665	6938.59	4667.5
6938.591	2380	6938.591	1645	6938.591	1567.5	6938.591	-500	6938.591	4787.5
6938.592	2377.5	6938.592	1630	6938.592	1617.5	6938.592	-542.5	6938.592	4740
6938.593	2430	6938.593	1655	6938.593	1582.5	6938.593	-515	6938.593	4862.5
6938.594	2502.5	6938.594	1675	6938.594	1577.5	6938.594	-527.5	6938.594	4765
6938.595	2430	6938.595	1647.5	6938.595	1497.5	6938.595	-602.5	6938.595	4692.5
6938.596	2365	6938.596	1632.5	6938.596	1415	6938.596	-657.5	6938.596	4637.5
6938.597	2220	6938.597	1595	6938.597	1445	6938.597	-675	6938.597	4550
6938.598	2150	6938.598	1507.5	6938.598	1385	6938.598	-947.5	6938.598	4435
6938.599	2097.5	6938.599	1430	6938.599	1382.5	6938.599	-787.5	6938.599	4317.5
6938.6	2007.5	6938.6	1400	6938.6	1382.5	6938.6	-965	6938.6	4237.5
6938.601	1887.5	6938.601	1322.5	6938.601	1272.5	6938.601	-1027.5	6938.601	4125
6938.602	1827.5	6938.602	1342.5	6938.602	1277.5	6938.602	-975	6938.602	4097.5
6938.603	1850	6938.603	1325	6938.603	1302.5	6938.603	-897.5	6938.603	4117.5
6938.604	1857.5	6938.604	1332.5	6938.604	1337.5	6938.604	-965	6938.604	4057.5
6938.605	1972.5	6938.605	1342.5	6938.605	1452.5	6938.605	-800	6938.605	4105
6938.606	2100	6938.606	1397.5	6938.606	1402.5	6938.606	-812.5	6938.606	4165
6938.607	2230	6938.607	1457.5	6938.607	1470	6938.607	-775	6938.607	4200
6938.608	2342.5	6938.608	1560	6938.608	1547.5	6938.608	-635	6938.608	4260
6938.609	2405	6938.609	1587.5	6938.609	1547.5	6938.609	-600	6938.609	4397.5
6938.61	2527.5	6938.61	1612.5	6938.61	1605	6938.61	-622.5	6938.61	4452.5
6938.611	2632.5	6938.611	1760	6938.611	1607.5	6938.611	-482.5	6938.611	4502.5
6938.612	2632.5	6938.612	1735	6938.612	1567.5	6938.612	-582.5	6938.612	4517.5
6938.613	2670	6938.613	1645	6938.613	1620	6938.613	-552.5	6938.613	4520
6938.614	2707.5	6938.614	1710	6938.614	1655	6938.614	-560	6938.614	4512.5
6938.615	2692.5	6938.615	1687.5	6938.615	1522.5	6938.615	-637.5	6938.615	4450
6938.616	2572.5	6938.616	1605	6938.616	1487.5	6938.616	-635	6938.616	4405
6938.617	2407.5	6938.617	1510	6938.617	1380	6938.617	-817.5	6938.617	4212.5
6938.618	2342.5	6938.618	1447.5	6938.618	1430	6938.618	-852.5	6938.618	4145
6938.619	2320	6938.619	1487.5	6938.619	1422.5	6938.619	-857.5	6938.619	4112.5
6938.62	2220	6938.62	1392.5	6938.62	1335	6938.62	-997.5	6938.62	3960
6938.621	2070	6938.621	1355	6938.621	1282.5	6938.621	-1070	6938.621	3865
6938.622	1965	6938.622	1255	6938.622	1222.5	6938.622	-1067.5	6938.622	3767.5
6938.623	1862.5	6938.623	1132.5	6938.623	1092.5	6938.623	-1097.5	6938.623	3622.5
6938.624	1972.5	6938.624	1190	6938.624	1177.5	6938.624	-1032.5	6938.624	3725
6938.625	2165	6938.625	1362.5	6938.625	1395	6938.625	-782.5	6938.625	3855
6938.626	2147.5	6938.626	1367.5	6938.626	1372.5	6938.626	-770	6938.626	3912.5
6938.627	2072.5	6938.627	1112.5	6938.627	1082.5	6938.627	-1120	6938.627	3682.5
6938.628	2137.5	6938.628	1042.5	6938.628	1095	6938.628	-1117.5	6938.628	3687.5
6938.629	1755	6938.629	520	6938.629	607.5	6938.629	-1577.5	6938.629	3160
6938.63	1635	6938.63	377.5	6938.63	385	6938.63	-1905	6938.63	3080
6938.631	1595	6938.631	472.5	6938.631	327.5	6938.631	-1920	6938.631	2992.5
6938.632	615	6938.632	-687.5	6938.632	-810	6938.632	-3042.5	6938.632	1972.5
6938.633	440	6938.633	-930	6938.633	-997.5	6938.633	-3240	6938.633	1745
6938.634	620	6938.634	-690	6938.634	-805	6938.634	-3067.5	6938.634	2005
6938.635	650	6938.635	-557.5	6938.635	-580	6938.635	-3040	6938.635	2067.5
6938.636	497.5	6938.636	-675	6938.636	-607.5	6938.636	-3040	6938.636	1972.5
6938.637	620	6938.637	-530	6938.637	-530	6938.637	-2845	6938.637	2082.5
6938.638	1180	6938.638	32.5	6938.638	187.5	6938.638	-2397.5	6938.638	2572.5
6938.639	1090	6938.639	-40	6938.639	-27.5	6938.639	-2400	6938.639	2420
6938.64	502.5	6938.64	-632.5	6938.64	-615	6938.64	-2970	6938.64	1750
6938.641	147.5	6938.641	-977.5	6938.641	-880	6938.641	-3440	6938.641	1375
6938.642	-32.5	6938.642	-1102.5	6938.642	-1070	6938.642	-3490	6938.642	1237.5
6938.643	-202.5	6938.643	-1247.5	6938.643	-1160	6938.643	-3637.5	6938.643	1057.5
6938.644	50	6938.644	-952.5	6938.644	-847.5	6938.644	-3447.5	6938.644	1260
6938.645	177.5	6938.645	-877.5	6938.645	-787.5	6938.645	-3227.5	6938.645	1347.5
6938.646	12.5	6938.646	-1037.5	6938.646	-857.5	6938.646	-3317.5	6938.646	1225
6938.647	182.5	6938.647	-950	6938.647	-897.5	6938.647	-3235	6938.647	1355
6938.648	760	6938.648	-315	6938.648	-257.5	6938.648	-2700	6938.648	1965
6938.649	1402.5	6938.649	310	6938.649	340	6938.649	-2137.5	6938.649	2645
6938.65	1735	6938.65	522.5	6938.65	632.5	6938.65	-1820	6938.65	2880
6938.651	1727.5	6938.651	522.5	6938.651	525	6938.651	-1822.5	6938.651	2875
6938.652	1650	6938.652	317.5	6938.652	365	6938.652	-1930	6938.652	2752.5
6938.653	1630	6938.653	380	6938.653	257.5	6938.653	-2022.5	6938.653	2737.5
6938.654	1647.5	6938.654	300	6938.654	242.5	6938.654	-2130	6938.654	2650
6938.655	1485	6938.655	227.5	6938.655	92.5	6938.655	-2132.5	6938.655	2567.5
6938.656	1407.5	6938.656	155	6938.656	72.5	6938.656	-2207.5	6938.656	2457.5
6938.657	1302.5	6938.657	112.5	6938.657	20	6938.657	-2395	6938.657	2405
6938.658	1197.5	6938.658	102.5	6938.658	40	6938.658	-2365	6938.658	2350
6938.659	1035	6938.659	65	6938.659	-95	6938.659	-2362.5	6938.659	2200
6938.66	990	6938.66	-60	6938.66	-55	6938.66	-2547.5	6938.66	2072.5
6938.661	837.5	6938.661	-75	6938.661	-67.5	6938.661	-2485	6938.661	2055
6938.662	887.5	6938.662	-65	6938.662	-60	6938.662	-2552.5	6938.662	2022.5
6938.663	875	6938.663	-112.5	6938.663	-75	6938.663	-2570	6938.663	2005
6938.664	885	6938.664	-65	6938.664	-30	6938.664	-2490	6938.664	2002.5
6938.665	1025	6938.665	67.5	6938.665	-7.5	6938.665	-2357.5	6938.665	2050
6938.666	1127.5	6938.666	57.5	6938.666	-7.5	6938.666	-2290	6938.666	2157.5
6938.667	1280	6938.667	100	6938.667	92.5	6938.667	-2270	6938.667	2172.5
6938.668	1490	6938.668	262.5	6938.668	257.5	6938.668	-1967.5	6938.668	2282.5
6938.669	1552.5	6938.669	295	6938.669	292.5	6938.669	-2062.5	6938.669	2427.5
6938.67	1662.5	6938.67	415	6938.67	402.5	6938.67	-1995	6938.67	2532.5
6938.671	1805	6938.671	502.5	6938.671	427.5	6938.671	-1895	6938.671	2670
6938.672	1842.5	6938.672	500	6938.672	410	6938.672	-1857.5	6938.672	2675
6938.673	1902.5	6938.673	545	6938.673	397.5	6938.673	-1887.5	6938.673	2680
6938.674	1975	6938.674	582.5	6938.674	452.5	6938.674	-1870	6938.674	2750
6938.675	1930	6938.675	560	6938.675	355	6938.675	-1947.5	6938.675	2670
6938.676	1807.5	6938.676	545	6938.676	445	6938.676	-2020	6938.676	2610
6938.677	1782.5	6938.677	552.5	6938.677	345	6938.677	-2040	6938.677	2622.5
6938.678	1655	6938.678	465	6938.678	315	6938.678	-2092.5	6938.678	2530
6938.679	1652.5	6938.679	505	6938.679	335	6938.679	-2002.5	6938.679	2492.5
6938.68	1520	6938.68	435	6938.68	280	6938.68	-2127.5	6938.68	2382.5
6938.681	1412.5	6938.681	412.5	6938.681	337.5	6938.681	-2115	6938.681	2292.5
6938.682	1417.5	6938.682	512.5	6938.682	355	6938.682	-2067.5	6938.682	2267.5
6938.683	1380	6938.683	460	6938.683	410	6938.683	-2150	6938.683	2225
6938.684	1452.5	6938.684	482.5	6938.684	427.5	6938.684	-1927.5	6938.684	2335
6938.685	1555	6938.685	615	6938.685	525	6938.685	-1890	6938.685	2460
6938.686	1647.5	6938.686	702.5	6938.686	560	6938.686	-1782.5	6938.686	2500
6938.687	1770	6938.687	790	6938.687	670	6938.687	-1730	6938.687	2687.5
6938.688	1897.5	6938.688	922.5	6938.688	680	6938.688	-1545	6938.688	2785
6938.689	2105	6938.689	947.5	6938.689	775	6938.689	-1497.5	6938.689	2900
6938.69	2210	6938.69	1067.5	6938.69	790	6938.69	-1370	6938.69	3005
6938.691	2350	6938.691	1137.5	6938.691	867.5	6938.691	-1372.5	6938.691	3090
6938.692	2432.5	6938.692	1202.5	6938.692	827.5	6938.692	-1480	6938.692	3172.5
6938.693	2440	6938.693	1235	6938.693	862.5	6938.693	-1415	6938.693	3265
6938.694	2502.5	6938.694	1212.5	6938.694	887.5	6938.694	-1292.5	6938.694	3320
6938.695	2435	6938.695	1272.5	6938.695	862.5	6938.695	-1340	6938.695	3285
6938.696	2390	6938.696	1200	6938.696	887.5	6938.696	-1477.5	6938.696	3197.5
6938.697	2325	6938.697	1235	6938.697	962.5	6938.697	-1467.5	6938.697	3192.5
6938.698	2287.5	6938.698	1257.5	6938.698	907.5	6938.698	-1482.5	6938.698	3142.5
6938.699	2175	6938.699	1200	6938.699	910	6938.699	-1425	6938.699	3090
6938.7	2065	6938.7	1160	6938.7	992.5	6938.7	-1630	6938.7	3035
6938.701	1852.5	6938.701	1010	6938.701	882.5	6938.701	-1615	6938.701	2890
6938.702	1805	6938.702	942.5	6938.702	995	6938.702	-1690	6938.702	2950
6938.703	2175	6938.703	1417.5	6938.703	1432.5	6938.703	-1302.5	6938.703	3477.5
6938.704	4037.5	6938.704	3210	6938.704	2887.5	6938.704	855	6938.704	5250
6938.705	6645	6938.705	5615	6938.705	4505	6938.705	3617.5	6938.705	7510
6938.706	9255	6938.706	7275	6938.706	4920	6938.706	7012.5	6938.706	8977.5
6938.707	12752.5	6938.707	10010	6938.707	6345	6938.707	10777.5	6938.707	11480
6938.708	18395	6938.708	15567.5	6938.708	11262.5	6938.708	16615	6938.708	17007.5
6938.709	24467.5	6938.709	23172.5	6938.709	19415	6938.709	21802.5	6938.709	24695
6938.71	36005	6938.71	38450	6938.71	33505	6938.71	30692.5	6938.71	38897.5
6938.711	45377.5	6938.711	52287.5	6938.711	45457.5	6938.711	36775	6938.711	50542.5
6938.712	52122.5	6938.712	62307.5	6938.712	52160	6938.712	40130	6938.712	56475
6938.713	60192.5	6938.713	70085	6938.713	57462.5	6938.713	46835	6938.713	60610
6938.714	67775	6938.714	77587.5	6938.714	62327.5	6938.714	47755	6938.714	66495
6938.715	54802.5	6938.715	81917.5	6938.715	42807.5	6938.715	-7672.5	6938.715	73150
6938.716	-6972.5	6938.716	77910	6938.716	39052.5	6938.716	-13065	6938.716	43882.5
6938.717	7735	6938.717	1170	6938.717	-27717.5	6938.717	-1270	6938.717	-1925
6938.718	11980	6938.718	4745	6938.718	-6930	6938.718	2792.5	6938.718	4805
6938.719	13305	6938.719	10810	6938.719	2090	6938.719	4587.5	6938.719	7940
6938.72	13280	6938.72	12440	6938.72	4680	6938.72	4847.5	6938.72	8412.5
6938.721	14080	6938.721	13767.5	6938.721	6805	6938.721	5982.5	6938.721	9002.5
6938.722	14757.5	6938.722	14360	6938.722	8127.5	6938.722	6905	6938.722	9215
6938.723	14240	6938.723	13637.5	6938.723	8047.5	6938.723	6395	6938.723	8067.5
6938.724	14580	6938.724	13937.5	6938.724	8842.5	6938.724	6412.5	6938.724	7972.5
6938.725	14945	6938.725	14135	6938.725	9470	6938.725	6587.5	6938.725	7805
6938.726	15120	6938.726	14207.5	6938.726	9925	6938.726	6230	6938.726	7522.5
6938.727	15155	6938.727	14207.5	6938.727	10047.5	6938.727	5935	6938.727	7370
6938.728	15695	6938.728	14857.5	6938.728	10710	6938.728	6040	6938.728	8045
6938.729	16445	6938.729	16132.5	6938.729	11537.5	6938.729	6447.5	6938.729	9330
6938.73	17612.5	6938.73	17940	6938.73	12472.5	6938.73	7205	6938.73	11190
6938.731	18657.5	6938.731	19867.5	6938.731	13085	6938.731	7747.5	6938.731	13157.5
6938.732	19512.5	6938.732	21612.5	6938.732	13440	6938.732	8177.5	6938.732	15167.5
6938.733	20365	6938.733	23385	6938.733	13757.5	6938.733	8685	6938.733	17085
6938.734	21017.5	6938.734	24742.5	6938.734	14040	6938.734	9302.5	6938.734	18850
6938.735	21365	6938.735	25617.5	6938.735	14240	6938.735	9755	6938.735	20215
6938.736	21545	6938.736	26207.5	6938.736	14257.5	6938.736	10110	6938.736	21237.5
6938.737	21500	6938.737	26482.5	6938.737	14390	6938.737	10447.5	6938.737	22007.5
6938.738	21290	6938.738	26477.5	6938.738	14380	6938.738	10585	6938.738	22375
6938.739	20987.5	6938.739	26362.5	6938.739	14422.5	6938.739	10622.5	6938.739	22610
6938.74	20562.5	6938.74	26190	6938.74	14352.5	6938.74	10737.5	6938.74	22580
6938.741	20075	6938.741	25772.5	6938.741	14262.5	6938.741	10437.5	6938.741	22467.5
6938.742	19582.5	6938.742	25307.5	6938.742	14102.5	6938.742	10322.5	6938.742	22127.5
6938.743	19102.5	6938.743	24882.5	6938.743	13965	6938.743	10097.5	6938.743	21800
6938.744	18527.5	6938.744	24415	6938.744	13732.5	6938.744	9962.5	6938.744	21357.5
6938.745	18075	6938.745	23982.5	6938.745	13557.5	6938.745	9707.5	6938.745	20985
6938.746	17525	6938.746	23455	6938.746	13242.5	6938.746	9300	6938.746	20527.5
6938.747	17077.5	6938.747	22940	6938.747	12895	6938.747	8940	6938.747	19995
6938.748	16672.5	6938.748	22417.5	6938.748	12645	6938.748	8612.5	6938.748	19590
6938.749	16160	6938.749	21910	6938.749	12202.5	6938.749	8335	6938.749	19050
6938.75	15672.5	6938.75	21412.5	6938.75	11810	6938.75	7825	6938.75	18537.5
6938.751	15122.5	6938.751	20900	6938.751	11525	6938.751	7530	6938.751	18085
6938.752	14690	6938.752	20382.5	6938.752	11077.5	6938.752	7057.5	6938.752	17500
6938.753	14157.5	6938.753	19820	6938.753	10712.5	6938.753	6712.5	6938.753	16955
6938.754	13637.5	6938.754	19337.5	6938.754	10320	6938.754	6402.5	6938.754	16332.5
6938.755	13107.5	6938.755	18747.5	6938.755	9802.5	6938.755	5855	6938.755	15742.5
6938.756	12510	6938.756	18155	6938.756	9447.5	6938.756	5545	6938.756	15085
6938.757	11865	6938.757	17585	6938.757	9032.5	6938.757	5190	6938.757	14545
6938.758	11275	6938.758	16880	6938.758	8662.5	6938.758	4737.5	6938.758	13860
6938.759	10812.5	6938.759	16200	6938.759	8232.5	6938.759	4382.5	6938.759	13277.5
6938.76	10237.5	6938.76	15522.5	6938.76	7827.5	6938.76	4012.5	6938.76	12675
6938.761	9725	6938.761	14735	6938.761	7487.5	6938.761	3792.5	6938.761	12150
6938.762	9300	6938.762	14022.5	6938.762	7267.5	6938.762	3462.5	6938.762	11670
6938.763	8877.5	6938.763	13177.5	6938.763	6837.5	6938.763	3300	6938.763	11222.5
6938.764	8547.5	6938.764	12470	6938.764	6547.5	6938.764	3052.5	6938.764	10847.5
6938.765	8315	6938.765	11842.5	6938.765	6322.5	6938.765	3010	6938.765	10527.5
6938.766	8120	6938.766	11072.5	6938.766	6095	6938.766	2762.5	6938.766	10140
6938.767	7897.5	6938.767	10390	6938.767	5787.5	6938.767	2622.5	6938.767	9590
6938.768	7740	6938.768	9762.5	6938.768	5642.5	6938.768	2755	6938.768	8710
6938.769	7502.5	6938.769	9105	6938.769	5360	6938.769	2615	6938.769	7437.5
6938.77	7330	6938.77	8452.5	6938.77	5137.5	6938.77	2450	6938.77	6077.5
6938.771	7155	6938.771	7825	6938.771	5005	6938.771	2475	6938.771	4632.5
6938.772	6935	6938.772	7245	6938.772	4742.5	6938.772	2350	6938.772	3247.5
6938.773	6760	6938.773	6697.5	6938.773	4575	6938.773	2240	6938.773	1975
6938.774	6460	6938.774	6112.5	6938.774	4277.5	6938.774	2155	6938.774	720
6938.775	6147.5	6938.775	5530	6938.775	3980	6938.775	1970	6938.775	-447.5
6938.776	5877.5	6938.776	5007.5	6938.776	3685	6938.776	1867.5	6938.776	-1502.5
6938.777	5585	6938.777	4422.5	6938.777	3462.5	6938.777	1817.5	6938.777	-2455
6938.778	5200	6938.778	3860	6938.778	3222.5	6938.778	1620	6938.778	-3322.5
6938.779	4855	6938.779	3452.5	6938.779	2950	6938.779	1492.5	6938.779	-4102.5
6938.78	4497.5	6938.78	2902.5	6938.78	2727.5	6938.78	1247.5	6938.78	-4857.5
6938.781	4222.5	6938.781	2325	6938.781	2500	6938.781	1285	6938.781	-5570
6938.782	3990	6938.782	1912.5	6938.782	2250	6938.782	1247.5	6938.782	-6162.5
6938.783	3700	6938.783	1515	6938.783	2010	6938.783	1150	6938.783	-6705
6938.784	3480	6938.784	1055	6938.784	1815	6938.784	1065	6938.784	-7277.5
6938.785	3477.5	6938.785	792.5	6938.785	1737.5	6938.785	1125	6938.785	-7640
6938.786	3317.5	6938.786	415	6938.786	1502.5	6938.786	1085	6938.786	-8037.5
6938.787	3250	6938.787	95	6938.787	1427.5	6938.787	1132.5	6938.787	-8322.5
6938.788	3150	6938.788	-297.5	6938.788	1215	6938.788	1067.5	6938.788	-8647.5
6938.789	2965	6938.789	-550	6938.789	1020	6938.789	1010	6938.789	-8975
6938.79	2815	6938.79	-965	6938.79	850	6938.79	1070	6938.79	-9210
6938.791	2760	6938.791	-1227.5	6938.791	722.5	6938.791	1110	6938.791	-9477.5
6938.792	2535	6938.792	-1630	6938.792	442.5	6938.792	962.5	6938.792	-9795
6938.793	2382.5	6938.793	-1930	6938.793	370	6938.793	945	6938.793	-10040
6938.794	2167.5	6938.794	-2272.5	6938.794	155	6938.794	710	6938.794	-10332.5
6938.795	1882.5	6938.795	-2682.5	6938.795	-170	6938.795	562.5	6938.795	-10677.5
6938.796	1547.5	6938.796	-2980	6938.796	-390	6938.796	462.5	6938.796	-10995
6938.797	1320	6938.797	-3392.5	6938.797	-645	6938.797	245	6938.797	-11417.5
6938.798	990	6938.798	-3715	6938.798	-862.5	6938.798	177.5	6938.798	-11695
6938.799	595	6938.799	-4092.5	6938.799	-1167.5	6938.799	32.5	6938.799	-12040
6938.8	320	6938.8	-4490	6938.8	-1385	6938.8	-207.5	6938.8	-12367.5
6938.801	7.5	6938.801	-4867.5	6938.801	-1612.5	6938.801	-350	6938.801	-12637.5
6938.802	-207.5	6938.802	-5125	6938.802	-1782.5	6938.802	-460	6938.802	-12872.5
6938.803	-490	6938.803	-5405	6938.803	-1935	6938.803	-387.5	6938.803	-13162.5
6938.804	-622.5	6938.804	-5680	6938.804	-2090	6938.804	-647.5	6938.804	-13362.5
6938.805	-732.5	6938.805	-5900	6938.805	-2075	6938.805	-497.5	6938.805	-13440
6938.806	-857.5	6938.806	-6045	6938.806	-2232.5	6938.806	-587.5	6938.806	-13522.5
6938.807	-915	6938.807	-6315	6938.807	-2247.5	6938.807	-527.5	6938.807	-13635
6938.808	-942.5	6938.808	-6430	6938.808	-2350	6938.808	-637.5	6938.808	-13722.5
6938.809	-1015	6938.809	-6635	6938.809	-2467.5	6938.809	-737.5	6938.809	-13790
6938.81	-1102.5	6938.81	-6757.5	6938.81	-2595	6938.81	-755	6938.81	-13860
6938.811	-1195	6938.811	-6927.5	6938.811	-2582.5	6938.811	-772.5	6938.811	-13937.5
6938.812	-1287.5	6938.812	-7060	6938.812	-2795	6938.812	-925	6938.812	-13997.5
6938.813	-1402.5	6938.813	-7190	6938.813	-2787.5	6938.813	-1017.5	6938.813	-13992.5
6938.814	-1652.5	6938.814	-7362.5	6938.814	-2977.5	6938.814	-1055	6938.814	-14137.5
6938.815	-1835	6938.815	-7630	6938.815	-3165	6938.815	-1347.5	6938.815	-14337.5
6938.816	-2067.5	6938.816	-7850	6938.816	-3307.5	6938.816	-1452.5	6938.816	-14510
6938.817	-2340	6938.817	-8065	6938.817	-3395	6938.817	-1567.5	6938.817	-14692.5
6938.818	-2607.5	6938.818	-8262.5	6938.818	-3530	6938.818	-1557.5	6938.818	-14805
6938.819	-2880	6938.819	-8407.5	6938.819	-3697.5	6938.819	-1752.5	6938.819	-14985
6938.82	-3127.5	6938.82	-8592.5	6938.82	-3770	6938.82	-1955	6938.82	-15207.5
6938.821	-3342.5	6938.821	-8760	6938.821	-3875	6938.821	-2142.5	6938.821	-15357.5
6938.822	-3410	6938.822	-8930	6938.822	-4025	6938.822	-2277.5	6938.822	-15447.5
6938.823	-3640	6938.823	-9097.5	6938.823	-4172.5	6938.823	-2187.5	6938.823	-15600
6938.824	-3747.5	6938.824	-9172.5	6938.824	-4172.5	6938.824	-2307.5	6938.824	-15695
6938.825	-3910	6938.825	-9185	6938.825	-4257.5	6938.825	-2325	6938.825	-15715
6938.826	-3792.5	6938.826	-9275	6938.826	-4295	6938.826	-2220	6938.826	-15672.5
6938.827	-3832.5	6938.827	-9290	6938.827	-4285	6938.827	-2210	6938.827	-15652.5
6938.828	-3802.5	6938.828	-9267.5	6938.828	-4430	6938.828	-2355	6938.828	-15620
6938.829	-3875	6938.829	-9355	6938.829	-4407.5	6938.829	-2275	6938.829	-15570
6938.83	-3807.5	6938.83	-9342.5	6938.83	-4442.5	6938.83	-2355	6938.83	-15445
6938.831	-3805	6938.831	-9435	6938.831	-4512.5	6938.831	-2435	6938.831	-15482.5
6938.832	-3875	6938.832	-9407.5	6938.832	-4502.5	6938.832	-2335	6938.832	-15480
6938.833	-3880	6938.833	-9520	6938.833	-4617.5	6938.833	-2367.5	6938.833	-15392.5
6938.834	-3995	6938.834	-9567.5	6938.834	-4570	6938.834	-2372.5	6938.834	-15387.5
6938.835	-4160	6938.835	-9620	6938.835	-4685	6938.835	-2502.5	6938.835	-15492.5
6938.836	-4305	6938.836	-9700	6938.836	-4847.5	6938.836	-2517.5	6938.836	-15612.5
6938.837	-4422.5	6938.837	-9755	6938.837	-4882.5	6938.837	-2685	6938.837	-15635
6938.838	-4650	6938.838	-9910	6938.838	-5022.5	6938.838	-2755	6938.838	-15745
6938.839	-4837.5	6938.839	-10017.5	6938.839	-5082.5	6938.839	-2760	6938.839	-15827.5
6938.84	-5015	6938.84	-10072.5	6938.84	-5175	6938.84	-2842.5	6938.84	-15972.5
6938.841	-5172.5	6938.841	-10077.5	6938.841	-5212.5	6938.841	-2910	6938.841	-16025
6938.842	-5292.5	6938.842	-10125	6938.842	-5215	6938.842	-2952.5	6938.842	-15995
6938.843	-5382.5	6938.843	-10162.5	6938.843	-5307.5	6938.843	-3052.5	6938.843	-15992.5
6938.844	-5450	6938.844	-10140	6938.844	-5307.5	6938.844	-2982.5	6938.844	-15990
6938.845	-5377.5	6938.845	-10110	6938.845	-5317.5	6938.845	-2902.5	6938.845	-15935
6938.846	-5300	6938.846	-10085	6938.846	-5287.5	6938.846	-2887.5	6938.846	-15842.5
6938.847	-5285	6938.847	-10037.5	6938.847	-5227.5	6938.847	-2817.5	6938.847	-15740
6938.848	-5127.5	6938.848	-9962.5	6938.848	-5212.5	6938.848	-2700	6938.848	-15602.5
6938.849	-5145	6938.849	-9882.5	6938.849	-5327.5	6938.849	-2697.5	6938.849	-15497.5
6938.85	-5037.5	6938.85	-9805	6938.85	-5242.5	6938.85	-2640	6938.85	-15410
6938.851	-4917.5	6938.851	-9712.5	6938.851	-5227.5	6938.851	-2570	6938.851	-15297.5
6938.852	-4967.5	6938.852	-9722.5	6938.852	-5275	6938.852	-2627.5	6938.852	-15195
6938.853	-4870	6938.853	-9670	6938.853	-5272.5	6938.853	-2622.5	6938.853	-15115
6938.854	-4892.5	6938.854	-9697.5	6938.854	-5242.5	6938.854	-2470	6938.854	-15010
6938.855	-4922.5	6938.855	-9700	6938.855	-5255	6938.855	-2620	6938.855	-15127.5
6938.856	-5047.5	6938.856	-9652.5	6938.856	-5407.5	6938.856	-2610	6938.856	-15062.5
6938.857	-5117.5	6938.857	-9695	6938.857	-5507.5	6938.857	-2695	6938.857	-15085
6938.858	-5370	6938.858	-9710	6938.858	-5542.5	6938.858	-2745	6938.858	-15135
6938.859	-5425	6938.859	-9700	6938.859	-5540	6938.859	-2742.5	6938.859	-15195
6938.86	-5552.5	6938.86	-9742.5	6938.86	-5595	6938.86	-2780	6938.86	-15262.5
6938.861	-5700	6938.861	-9715	6938.861	-5677.5	6938.861	-2907.5	6938.861	-15252.5
6938.862	-5772.5	6938.862	-9775	6938.862	-5640	6938.862	-2797.5	6938.862	-15275
6938.863	-5785	6938.863	-9710	6938.863	-5687.5	6938.863	-2740	6938.863	-15235
6938.864	-5752.5	6938.864	-9692.5	6938.864	-5692.5	6938.864	-2715	6938.864	-15162.5
6938.865	-5657.5	6938.865	-9585	6938.865	-5690	6938.865	-2677.5	6938.865	-15095
6938.866	-5500	6938.866	-9487.5	6938.866	-5642.5	6938.866	-2452.5	6938.866	-14865
6938.867	-5482.5	6938.867	-9380	6938.867	-5595	6938.867	-2402.5	6938.867	-14780
6938.868	-5285	6938.868	-9287.5	6938.868	-5545	6938.868	-2347.5	6938.868	-14570
6938.869	-5222.5	6938.869	-9140	6938.869	-5565	6938.869	-2147.5	6938.869	-14500
6938.87	-5060	6938.87	-9130	6938.87	-5565	6938.87	-2150	6938.87	-14320
6938.871	-4925	6938.871	-8997.5	6938.871	-5550	6938.871	-2075	6938.871	-14175
6938.872	-4790	6938.872	-9012.5	6938.872	-5552.5	6938.872	-2175	6938.872	-14135
6938.873	-4747.5	6938.873	-8847.5	6938.873	-5667.5	6938.873	-2105	6938.873	-13950
6938.874	-4755	6938.874	-8767.5	6938.874	-5690	6938.874	-1822.5	6938.874	-13887.5
6938.875	-4870	6938.875	-8792.5	6938.875	-5787.5	6938.875	-2067.5	6938.875	-13912.5
6938.876	-4967.5	6938.876	-8755	6938.876	-5805	6938.876	-2062.5	6938.876	-13860
6938.877	-5085	6938.877	-8745	6938.877	-5880	6938.877	-2067.5	6938.877	-13800
6938.878	-5127.5	6938.878	-8657.5	6938.878	-5915	6938.878	-2050	6938.878	-13832.5
6938.879	-5195	6938.879	-8737.5	6938.879	-6015	6938.879	-2122.5	6938.879	-13840
6938.88	-5277.5	6938.88	-8785	6938.88	-6070	6938.88	-2082.5	6938.88	-13862.5
6938.881	-5400	6938.881	-8735	6938.881	-6102.5	6938.881	-2075	6938.881	-13907.5
6938.882	-5375	6938.882	-8610	6938.882	-6147.5	6938.882	-1985	6938.882	-13845
6938.883	-5360	6938.883	-8655	6938.883	-6085	6938.883	-1995	6938.883	-13852.5
6938.884	-5315	6938.884	-8592.5	6938.884	-6172.5	6938.884	-1840	6938.884	-13770
6938.885	-5270	6938.885	-8542.5	6938.885	-6142.5	6938.885	-1807.5	6938.885	-13645
6938.886	-5160	6938.886	-8412.5	6938.886	-6122.5	6938.886	-1667.5	6938.886	-13532.5
6938.887	-5052.5	6938.887	-8280	6938.887	-6147.5	6938.887	-1707.5	6938.887	-13400
6938.888	-4902.5	6938.888	-8085	6938.888	-6157.5	6938.888	-1492.5	6938.888	-13212.5
6938.889	-4860	6938.889	-8077.5	6938.889	-6140	6938.889	-1392.5	6938.889	-13137.5
6938.89	-4715	6938.89	-7927.5	6938.89	-6175	6938.89	-1477.5	6938.89	-12932.5
6938.891	-4650	6938.891	-7835	6938.891	-6085	6938.891	-1292.5	6938.891	-12750
6938.892	-4580	6938.892	-7797.5	6938.892	-6167.5	6938.892	-1302.5	6938.892	-12682.5
6938.893	-4472.5	6938.893	-7765	6938.893	-6222.5	6938.893	-1207.5	6938.893	-12582.5
6938.894	-4515	6938.894	-7692.5	6938.894	-6240	6938.894	-1215	6938.894	-12495
6938.895	-4532.5	6938.895	-7677.5	6938.895	-6277.5	6938.895	-1250	6938.895	-12475
6938.896	-4542.5	6938.896	-7562.5	6938.896	-6455	6938.896	-1277.5	6938.896	-12487.5
6938.897	-4687.5	6938.897	-7637.5	6938.897	-6505	6938.897	-1292.5	6938.897	-12447.5
6938.898	-4737.5	6938.898	-7732.5	6938.898	-6540	6938.898	-1317.5	6938.898	-12512.5
6938.899	-4890	6938.899	-7740	6938.899	-6600	6938.899	-1280	6938.899	-12510
6938.9	-5055	6938.9	-7747.5	6938.9	-6730	6938.9	-1395	6938.9	-12520
6938.901	-5085	6938.901	-7687.5	6938.901	-6712.5	6938.901	-1427.5	6938.901	-12582.5
6938.902	-5075	6938.902	-7602.5	6938.902	-6712.5	6938.902	-1287.5	6938.902	-12525
6938.903	-5130	6938.903	-7627.5	6938.903	-6767.5	6938.903	-1452.5	6938.903	-12550
6938.904	-5140	6938.904	-7607.5	6938.904	-6802.5	6938.904	-1257.5	6938.904	-12470
6938.905	-4952.5	6938.905	-7510	6938.905	-6717.5	6938.905	-1102.5	6938.905	-12340
6938.906	-4905	6938.906	-7370	6938.906	-6607.5	6938.906	-1072.5	6938.906	-12205
6938.907	-4760	6938.907	-7290	6938.907	-6707.5	6938.907	-965	6938.907	-12105
6938.908	-4582.5	6938.908	-7155	6938.908	-6580	6938.908	-860	6938.908	-11867.5
6938.909	-4527.5	6938.909	-7105	6938.909	-6602.5	6938.909	-790	6938.909	-11782.5
6938.91	-4415	6938.91	-6990	6938.91	-6552.5	6938.91	-627.5	6938.91	-11620
6938.911	-4267.5	6938.911	-6912.5	6938.911	-6570	6938.911	-535	6938.911	-11517.5
6938.912	-4257.5	6938.912	-6872.5	6938.912	-6710	6938.912	-550	6938.912	-11397.5
6938.913	-4182.5	6938.913	-6770	6938.913	-6625	6938.913	-550	6938.913	-11347.5
6938.914	-4175	6938.914	-6745	6938.914	-6650	6938.914	-552.5	6938.914	-11245
6938.915	-4280	6938.915	-6702.5	6938.915	-6685	6938.915	-660	6938.915	-11260
6938.916	-4340	6938.916	-6750	6938.916	-6797.5	6938.916	-667.5	6938.916	-11267.5
6938.917	-4392.5	6938.917	-6710	6938.917	-6850	6938.917	-692.5	6938.917	-11320
6938.918	-4552.5	6938.918	-6807.5	6938.918	-6937.5	6938.918	-760	6938.918	-11382.5
6938.919	-4572.5	6938.919	-6797.5	6938.919	-6975	6938.919	-660	6938.919	-11397.5
6938.92	-4710	6938.92	-6872.5	6938.92	-7107.5	6938.92	-807.5	6938.92	-11400
6938.921	-4810	6938.921	-6882.5	6938.921	-7095	6938.921	-780	6938.921	-11507.5
6938.922	-4822.5	6938.922	-6890	6938.922	-7077.5	6938.922	-855	6938.922	-11395
6938.923	-4872.5	6938.923	-6892.5	6938.923	-7242.5	6938.923	-740	6938.923	-11457.5
6938.924	-4812.5	6938.924	-6827.5	6938.924	-7242.5	6938.924	-675	6938.924	-11337.5
6938.925	-4820	6938.925	-6900	6938.925	-7157.5	6938.925	-595	6938.925	-11210
6938.926	-4655	6938.926	-6772.5	6938.926	-7117.5	6938.926	-500	6938.926	-11072.5
6938.927	-4505	6938.927	-6685	6938.927	-7105	6938.927	-467.5	6938.927	-10957.5
6938.928	-4437.5	6938.928	-6660	6938.928	-7125	6938.928	-297.5	6938.928	-10832.5
6938.929	-4352.5	6938.929	-6567.5	6938.929	-7135	6938.929	-305	6938.929	-10727.5
6938.93	-4262.5	6938.93	-6447.5	6938.93	-7030	6938.93	-305	6938.93	-10517.5
6938.931	-4077.5	6938.931	-6415	6938.931	-7035	6938.931	-285	6938.931	-10330
6938.932	-4050	6938.932	-6447.5	6938.932	-7197.5	6938.932	-290	6938.932	-10292.5
6938.933	-4015	6938.933	-6415	6938.933	-7125	6938.933	-120	6938.933	-10120
6938.934	-3990	6938.934	-6365	6938.934	-7200	6938.934	-215	6938.934	-10060
6938.935	-4012.5	6938.935	-6415	6938.935	-7202.5	6938.935	-187.5	6938.935	-9962.5
6938.936	-4122.5	6938.936	-6452.5	6938.936	-7322.5	6938.936	-202.5	6938.936	-10002.5
6938.937	-4175	6938.937	-6482.5	6938.937	-7337.5	6938.937	-375	6938.937	-9910
6938.938	-4332.5	6938.938	-6505	6938.938	-7455	6938.938	-372.5	6938.938	-9870
6938.939	-4400	6938.939	-6585	6938.939	-7427.5	6938.939	-365	6938.939	-9872.5
6938.94	-4552.5	6938.94	-6685	6938.94	-7482.5	6938.94	-520	6938.94	-9855
6938.941	-4705	6938.941	-6750	6938.941	-7555	6938.941	-455	6938.941	-9870
6938.942	-4682.5	6938.942	-6762.5	6938.942	-7482.5	6938.942	-415	6938.942	-9755
6938.943	-4745	6938.943	-6705	6938.943	-7457.5	6938.943	-360	6938.943	-9670
6938.944	-4700	6938.944	-6657.5	6938.944	-7372.5	6938.944	-335	6938.944	-9547.5
6938.945	-4682.5	6938.945	-6585	6938.945	-7312.5	6938.945	-347.5	6938.945	-9417.5
6938.946	-4585	6938.946	-6532.5	6938.946	-7287.5	6938.946	-260	6938.946	-9217.5
6938.947	-4487.5	6938.947	-6465	6938.947	-7222.5	6938.947	-135	6938.947	-8987.5
6938.948	-4332.5	6938.948	-6362.5	6938.948	-7142.5	6938.948	-17.5	6938.948	-8717.5
6938.949	-4272.5	6938.949	-6340	6938.949	-7050	6938.949	-85	6938.949	-8522.5
6938.95	-4155	6938.95	-6232.5	6938.95	-6937.5	6938.95	137.5	6938.95	-8280
6938.951	-4037.5	6938.951	-6182.5	6938.951	-6965	6938.951	140	6938.951	-8052.5
6938.952	-3985	6938.952	-6095	6938.952	-6910	6938.952	115	6938.952	-7840
6938.953	-3947.5	6938.953	-6055	6938.953	-6902.5	6938.953	157.5	6938.953	-7665
6938.954	-3952.5	6938.954	-6067.5	6938.954	-6842.5	6938.954	142.5	6938.954	-7502.5
6938.955	-3972.5	6938.955	-6030	6938.955	-6757.5	6938.955	25	6938.955	-7397.5
6938.956	-4097.5	6938.956	-6020	6938.956	-6755	6938.956	-135	6938.956	-7337.5
6938.957	-4160	6938.957	-6010	6938.957	-6742.5	6938.957	-40	6938.957	-7157.5
6938.958	-4277.5	6938.958	-6020	6938.958	-6745	6938.958	57.5	6938.958	-7140
6938.959	-4382.5	6938.959	-6050	6938.959	-6737.5	6938.959	-62.5	6938.959	-7047.5
6938.96	-4520	6938.96	-6047.5	6938.96	-6687.5	6938.96	-200	6938.96	-7037.5
6938.961	-4557.5	6938.961	-6042.5	6938.961	-6695	6938.961	-137.5	6938.961	-6897.5
6938.962	-4605	6938.962	-5990	6938.962	-6622.5	6938.962	-195	6938.962	-6797.5
6938.963	-4652.5	6938.963	-6000	6938.963	-6562.5	6938.963	-230	6938.963	-6660
6938.964	-4637.5	6938.964	-5877.5	6938.964	-6525	6938.964	-210	6938.964	-6542.5
6938.965	-4500	6938.965	-5840	6938.965	-6325	6938.965	-152.5	6938.965	-6347.5
6938.966	-4447.5	6938.966	-5707.5	6938.966	-6227.5	6938.966	-22.5	6938.966	-6057.5
6938.967	-4372.5	6938.967	-5502.5	6938.967	-6195	6938.967	-117.5	6938.967	-5845
6938.968	-4152.5	6938.968	-5445	6938.968	-6027.5	6938.968	-35	6938.968	-5602.5
6938.969	-4145	6938.969	-5310	6938.969	-5927.5	6938.969	157.5	6938.969	-5392.5
6938.97	-4095	6938.97	-5105	6938.97	-5850	6938.97	185	6938.97	-5120
6938.971	-3932.5	6938.971	-5015	6938.971	-5712.5	6938.971	285	6938.971	-4857.5
6938.972	-3945	6938.972	-4847.5	6938.972	-5622.5	6938.972	202.5	6938.972	-4705
6938.973	-3815	6938.973	-4685	6938.973	-5517.5	6938.973	215	6938.973	-4537.5
6938.974	-3827.5	6938.974	-4650	6938.974	-5475	6938.974	260	6938.974	-4355
6938.975	-3860	6938.975	-4472.5	6938.975	-5395	6938.975	227.5	6938.975	-4345
6938.976	-3897.5	6938.976	-4447.5	6938.976	-5297.5	6938.976	135	6938.976	-4275
6938.977	-3975	6938.977	-4460	6938.977	-5262.5	6938.977	160	6938.977	-4295
6938.978	-4102.5	6938.978	-4400	6938.978	-5232.5	6938.978	35	6938.978	-4285
6938.979	-4210	6938.979	-4305	6938.979	-5127.5	6938.979	-125	6938.979	-4325
6938.98	-4355	6938.98	-4280	6938.98	-5040	6938.98	-107.5	6938.98	-4412.5
6938.981	-4460	6938.981	-4292.5	6938.981	-5000	6938.981	-140	6938.981	-4425
6938.982	-4412.5	6938.982	-4202.5	6938.982	-4885	6938.982	-210	6938.982	-4415
6938.983	-4427.5	6938.983	-4070	6938.983	-4860	6938.983	-180	6938.983	-4400
6938.984	-4417.5	6938.984	-3950	6938.984	-4747.5	6938.984	-100	6938.984	-4380
6938.985	-4365	6938.985	-3850	6938.985	-4505	6938.985	-15	6938.985	-4340
6938.986	-4185	6938.986	-3730	6938.986	-4385	6938.986	-12.5	6938.986	-4230
6938.987	-4107.5	6938.987	-3550	6938.987	-4185	6938.987	40	6938.987	-4130
6938.988	-3977.5	6938.988	-3365	6938.988	-4035	6938.988	217.5	6938.988	-4017.5
6938.989	-3880	6938.989	-3170	6938.989	-3955	6938.989	190	6938.989	-3977.5
6938.99	-3807.5	6938.99	-2982.5	6938.99	-3815	6938.99	177.5	6938.99	-3827.5
6938.991	-3607.5	6938.991	-2890	6938.991	-3685	6938.991	285	6938.991	-3772.5
6938.992	-3620	6938.992	-2737.5	6938.992	-3690	6938.992	110	6938.992	-3765
6938.993	-3552.5	6938.993	-2617.5	6938.993	-3460	6938.993	402.5	6938.993	-3635
6938.994	-3565	6938.994	-2507.5	6938.994	-3455	6938.994	170	6938.994	-3617.5
6938.995	-3522.5	6938.995	-2455	6938.995	-3400	6938.995	130	6938.995	-3695
6938.996	-3622.5	6938.996	-2477.5	6938.996	-3307.5	6938.996	-25	6938.996	-3760
6938.997	-3632.5	6938.997	-2407.5	6938.997	-3272.5	6938.997	67.5	6938.997	-3847.5
6938.998	-3695	6938.998	-2387.5	6938.998	-3167.5	6938.998	5	6938.998	-3905
6938.999	-3805	6938.999	-2367.5	6938.999	-3122.5	6938.999	-7.5	6938.999	-3997.5
6939	-3947.5	6939	-2352.5	6939	-3080	6939	-260	6939	-4137.5
6939.001	-3977.5	6939.001	-2347.5	6939.001	-2950	6939.001	-200	6939.001	-4162.5
6939.002	-3922.5	6939.002	-2245	6939.002	-2837.5	6939.002	-237.5	6939.002	-4172.5
6939.003	-3982.5	6939.003	-2230	6939.003	-2740	6939.003	-292.5	6939.003	-4212.5
6939.004	-3965	6939.004	-2162.5	6939.004	-2650	6939.004	-200	6939.004	-4237.5
6939.005	-3940	6939.005	-2107.5	6939.005	-2625	6939.005	-267.5	6939.005	-4142.5
6939.006	-3822.5	6939.006	-1975	6939.006	-2392.5	6939.006	-262.5	6939.006	-4057.5
6939.007	-3732.5	6939.007	-1882.5	6939.007	-2352.5	6939.007	-142.5	6939.007	-3930
6939.008	-3537.5	6939.008	-1762.5	6939.008	-2222.5	6939.008	-137.5	6939.008	-3777.5
6939.009	-3470	6939.009	-1725	6939.009	-2067.5	6939.009	-110	6939.009	-3642.5
6939.01	-3252.5	6939.01	-1572.5	6939.01	-1947.5	6939.01	102.5	6939.01	-3455
6939.011	-3147.5	6939.011	-1525	6939.011	-1922.5	6939.011	-15	6939.011	-3332.5
6939.012	-3125	6939.012	-1462.5	6939.012	-1850	6939.012	0	6939.012	-3185
6939.013	-3002.5	6939.013	-1340	6939.013	-1827.5	6939.013	112.5	6939.013	-3037.5
6939.014	-3042.5	6939.014	-1360	6939.014	-1645	6939.014	-67.5	6939.014	-2972.5
6939.015	-3072.5	6939.015	-1412.5	6939.015	-1747.5	6939.015	-70	6939.015	-2977.5
6939.016	-3112.5	6939.016	-1410	6939.016	-1650	6939.016	-125	6939.016	-2990
6939.017	-3150	6939.017	-1385	6939.017	-1630	6939.017	-182.5	6939.017	-2945
6939.018	-3325	6939.018	-1395	6939.018	-1600	6939.018	-457.5	6939.018	-2972.5
6939.019	-3322.5	6939.019	-1452.5	6939.019	-1617.5	6939.019	-380	6939.019	-2982.5
6939.02	-3430	6939.02	-1462.5	6939.02	-1595	6939.02	-422.5	6939.02	-2872.5
6939.021	-3550	6939.021	-1462.5	6939.021	-1587.5	6939.021	-450	6939.021	-2910
6939.022	-3480	6939.022	-1350	6939.022	-1475	6939.022	-555	6939.022	-2807.5
6939.023	-3567.5	6939.023	-1475	6939.023	-1545	6939.023	-500	6939.023	-2765
6939.024	-3425	6939.024	-1445	6939.024	-1357.5	6939.024	-527.5	6939.024	-2660
6939.025	-3372.5	6939.025	-1420	6939.025	-1270	6939.025	-410	6939.025	-2490
6939.026	-3265	6939.026	-1347.5	6939.026	-1210	6939.026	-365	6939.026	-2320
6939.027	-3220	6939.027	-1240	6939.027	-1105	6939.027	-385	6939.027	-2187.5
6939.028	-3065	6939.028	-1217.5	6939.028	-1037.5	6939.028	-320	6939.028	-1902.5
6939.029	-3020	6939.029	-1222.5	6939.029	-875	6939.029	-337.5	6939.029	-1745
6939.03	-2842.5	6939.03	-1097.5	6939.03	-825	6939.03	-375	6939.03	-1537.5
6939.031	-2752.5	6939.031	-1002.5	6939.031	-785	6939.031	-347.5	6939.031	-1350
6939.032	-2697.5	6939.032	-1032.5	6939.032	-710	6939.032	-357.5	6939.032	-1162.5
6939.033	-2660	6939.033	-950	6939.033	-625	6939.033	-322.5	6939.033	-990
6939.034	-2607.5	6939.034	-955	6939.034	-537.5	6939.034	-287.5	6939.034	-892.5
6939.035	-2717.5	6939.035	-950	6939.035	-577.5	6939.035	-435	6939.035	-847.5
6939.036	-2805	6939.036	-1050	6939.036	-545	6939.036	-452.5	6939.036	-797.5
6939.037	-2807.5	6939.037	-1050	6939.037	-587.5	6939.037	-515	6939.037	-785
6939.038	-2910	6939.038	-1070	6939.038	-597.5	6939.038	-552.5	6939.038	-795
6939.039	-3002.5	6939.039	-1117.5	6939.039	-542.5	6939.039	-737.5	6939.039	-797.5
6939.04	-3045	6939.04	-1125	6939.04	-542.5	6939.04	-767.5	6939.04	-792.5
6939.041	-3150	6939.041	-1145	6939.041	-517.5	6939.041	-842.5	6939.041	-802.5
6939.042	-3170	6939.042	-1085	6939.042	-485	6939.042	-730	6939.042	-842.5
6939.043	-3192.5	6939.043	-1170	6939.043	-415	6939.043	-892.5	6939.043	-872.5
6939.044	-3197.5	6939.044	-1165	6939.044	-402.5	6939.044	-945	6939.044	-835
6939.045	-3125	6939.045	-1080	6939.045	-275	6939.045	-787.5	6939.045	-720
6939.046	-3077.5	6939.046	-995	6939.046	-235	6939.046	-772.5	6939.046	-632.5
6939.047	-2997.5	6939.047	-932.5	6939.047	-177.5	6939.047	-662.5	6939.047	-520
6939.048	-2842.5	6939.048	-892.5	6939.048	-15	6939.048	-782.5	6939.048	-345
6939.049	-2707.5	6939.049	-840	6939.049	25	6939.049	-762.5	6939.049	-217.5
6939.05	-2495	6939.05	-752.5	6939.05	87.5	6939.05	-525	6939.05	-77.5
6939.051	-2427.5	6939.051	-662.5	6939.051	197.5	6939.051	-590	6939.051	35
6939.052	-2382.5	6939.052	-645	6939.052	142.5	6939.052	-595	6939.052	110
6939.053	-2282.5	6939.053	-555	6939.053	180	6939.053	-657.5	6939.053	205
6939.054	-2290	6939.054	-577.5	6939.054	195	6939.054	-602.5	6939.054	280
6939.055	-2292.5	6939.055	-542.5	6939.055	95	6939.055	-670	6939.055	312.5
6939.056	-2340	6939.056	-605	6939.056	97.5	6939.056	-815	6939.056	320
6939.057	-2462.5	6939.057	-642.5	6939.057	105	6939.057	-847.5	6939.057	312.5
6939.058	-2530	6939.058	-667.5	6939.058	80	6939.058	-810	6939.058	237.5
6939.059	-2585	6939.059	-615	6939.059	132.5	6939.059	-890	6939.059	280
6939.06	-2612.5	6939.06	-662.5	6939.06	37.5	6939.06	-987.5	6939.06	272.5
6939.061	-2747.5	6939.061	-692.5	6939.061	20	6939.061	-1100	6939.061	317.5
6939.062	-2782.5	6939.062	-635	6939.062	72.5	6939.062	-997.5	6939.062	400
6939.063	-2795	6939.063	-625	6939.063	122.5	6939.063	-1122.5	6939.063	515
6939.064	-2765	6939.064	-645	6939.064	170	6939.064	-1075	6939.064	627.5
6939.065	-2610	6939.065	-532.5	6939.065	177.5	6939.065	-1080	6939.065	855
6939.066	-2550	6939.066	-417.5	6939.066	280	6939.066	-1040	6939.066	1077.5
6939.067	-2502.5	6939.067	-357.5	6939.067	352.5	6939.067	-845	6939.067	1277.5
6939.068	-2340	6939.068	-242.5	6939.068	450	6939.068	-770	6939.068	1550
6939.069	-2180	6939.069	-197.5	6939.069	515	6939.069	-742.5	6939.069	1775
6939.07	-2057.5	6939.07	-47.5	6939.07	537.5	6939.07	-715	6939.07	1960
6939.071	-1975	6939.071	-27.5	6939.071	652.5	6939.071	-725	6939.071	2155
6939.072	-1900	6939.072	42.5	6939.072	677.5	6939.072	-712.5	6939.072	2297.5
6939.073	-1845	6939.073	122.5	6939.073	700	6939.073	-600	6939.073	2510
6939.074	-1740	6939.074	132.5	6939.074	690	6939.074	-637.5	6939.074	2570
6939.075	-1805	6939.075	105	6939.075	612.5	6939.075	-687.5	6939.075	2657.5
6939.076	-1882.5	6939.076	55	6939.076	620	6939.076	-860	6939.076	2655
6939.077	-1887.5	6939.077	182.5	6939.077	627.5	6939.077	-900	6939.077	2720
6939.078	-1962.5	6939.078	-10	6939.078	532.5	6939.078	-920	6939.078	2635
6939.079	-2087.5	6939.079	50	6939.079	480	6939.079	-920	6939.079	2640
6939.08	-2202.5	6939.08	77.5	6939.08	452.5	6939.08	-1007.5	6939.08	2665
6939.081	-2292.5	6939.081	75	6939.081	417.5	6939.081	-1125	6939.081	2605
6939.082	-2237.5	6939.082	-10	6939.082	460	6939.082	-1032.5	6939.082	2665
6939.083	-2262.5	6939.083	20	6939.083	495	6939.083	-1160	6939.083	2687.5
6939.084	-2282.5	6939.084	2.5	6939.084	447.5	6939.084	-1252.5	6939.084	2807.5
6939.085	-2152.5	6939.085	92.5	6939.085	560	6939.085	-1120	6939.085	2952.5
6939.086	-2122.5	6939.086	142.5	6939.086	640	6939.086	-965	6939.086	3120
6939.087	-1990	6939.087	230	6939.087	747.5	6939.087	-980	6939.087	3245
6939.088	-1785	6939.088	287.5	6939.088	822.5	6939.088	-832.5	6939.088	3482.5
6939.089	-1812.5	6939.089	307.5	6939.089	740	6939.089	-850	6939.089	3632.5
6939.09	-1592.5	6939.09	422.5	6939.09	850	6939.09	-715	6939.09	3827.5
6939.091	-1422.5	6939.091	462.5	6939.091	865	6939.091	-727.5	6939.091	4002.5
6939.092	-1450	6939.092	492.5	6939.092	892.5	6939.092	-832.5	6939.092	4155
6939.093	-1292.5	6939.093	530	6939.093	887.5	6939.093	-685	6939.093	4332.5
6939.094	-1237.5	6939.094	532.5	6939.094	985	6939.094	-712.5	6939.094	4470
6939.095	-1335	6939.095	527.5	6939.095	892.5	6939.095	-815	6939.095	4512.5
6939.096	-1457.5	6939.096	550	6939.096	870	6939.096	-840	6939.096	4592.5
6939.097	-1510	6939.097	540	6939.097	942.5	6939.097	-915	6939.097	4665
6939.098	-1570	6939.098	440	6939.098	845	6939.098	-922.5	6939.098	4632.5
6939.099	-1665	6939.099	395	6939.099	852.5	6939.099	-890	6939.099	4635
6939.1	-1732.5	6939.1	315	6939.1	812.5	6939.1	-1027.5	6939.1	4545
6939.101	-1845	6939.101	325	6939.101	777.5	6939.101	-1072.5	6939.101	4525
6939.102	-1822.5	6939.102	312.5	6939.102	777.5	6939.102	-1090	6939.102	4607.5
6939.103	-1842.5	6939.103	292.5	6939.103	760	6939.103	-1052.5	6939.103	4650
6939.104	-1807.5	6939.104	350	6939.104	697.5	6939.104	-1047.5	6939.104	4645
6939.105	-1745	6939.105	357.5	6939.105	822.5	6939.105	-970	6939.105	4707.5
6939.106	-1602.5	6939.106	405	6939.106	872.5	6939.106	-972.5	6939.106	4882.5
6939.107	-1427.5	6939.107	487.5	6939.107	920	6939.107	-745	6939.107	5015
6939.108	-1282.5	6939.108	582.5	6939.108	1032.5	6939.108	-762.5	6939.108	5162.5
6939.109	-1190	6939.109	610	6939.109	1032.5	6939.109	-702.5	6939.109	5222.5
6939.11	-1050	6939.11	692.5	6939.11	1030	6939.11	-662.5	6939.11	5340
6939.111	-920	6939.111	737.5	6939.111	1097.5	6939.111	-637.5	6939.111	5487.5
6939.112	-990	6939.112	652.5	6939.112	1037.5	6939.112	-720	6939.112	5517.5
6939.113	-857.5	6939.113	722.5	6939.113	1112.5	6939.113	-687.5	6939.113	5677.5
6939.114	-792.5	6939.114	735	6939.114	1032.5	6939.114	-580	6939.114	5737.5
6939.115	-867.5	6939.115	710	6939.115	1100	6939.115	-705	6939.115	5712.5
6939.116	-997.5	6939.116	692.5	6939.116	930	6939.116	-795	6939.116	5617.5
6939.117	-1047.5	6939.117	645	6939.117	1032.5	6939.117	-832.5	6939.117	5645
6939.118	-1137.5	6939.118	500	6939.118	1002.5	6939.118	-797.5	6939.118	5552.5
6939.119	-1262.5	6939.119	465	6939.119	955	6939.119	-982.5	6939.119	5485
6939.12	-1347.5	6939.12	505	6939.12	842.5	6939.12	-955	6939.12	5387.5
6939.121	-1512.5	6939.121	355	6939.121	757.5	6939.121	-1192.5	6939.121	5242.5
6939.122	-1622.5	6939.122	277.5	6939.122	780	6939.122	-1150	6939.122	5190
6939.123	-1560	6939.123	287.5	6939.123	750	6939.123	-1322.5	6939.123	5190
6939.124	-1510	6939.124	350	6939.124	720	6939.124	-1152.5	6939.124	5202.5
6939.125	-1572.5	6939.125	257.5	6939.125	637.5	6939.125	-1325	6939.125	5105
6939.126	-1515	6939.126	250	6939.126	760	6939.126	-1152.5	6939.126	5195
6939.127	-1567.5	6939.127	265	6939.127	582.5	6939.127	-1205	6939.127	5100
6939.128	-1780	6939.128	-212.5	6939.128	277.5	6939.128	-1572.5	6939.128	4757.5
6939.129	-1802.5	6939.129	-340	6939.129	112.5	6939.129	-1785	6939.129	4652.5
6939.13	-1987.5	6939.13	-587.5	6939.13	-175	6939.13	-1917.5	6939.13	4460
6939.131	-2672.5	6939.131	-1382.5	6939.131	-970	6939.131	-2785	6939.131	3682.5
6939.132	-2855	6939.132	-1622.5	6939.132	-1232.5	6939.132	-3112.5	6939.132	3555
6939.133	-2662.5	6939.133	-1512.5	6939.133	-1067.5	6939.133	-2960	6939.133	3750
6939.134	-2575	6939.134	-1277.5	6939.134	-935	6939.134	-2875	6939.134	3837.5
6939.135	-2772.5	6939.135	-1510	6939.135	-1100	6939.135	-3057.5	6939.135	3617.5
6939.136	-2547.5	6939.136	-1352.5	6939.136	-955	6939.136	-2790	6939.136	3852.5
6939.137	-2482.5	6939.137	-1192.5	6939.137	-760	6939.137	-2730	6939.137	3857.5
6939.138	-2605	6939.138	-1132.5	6939.138	-737.5	6939.138	-2762.5	6939.138	3925
6939.139	-2462.5	6939.139	-1000	6939.139	-662.5	6939.139	-2562.5	6939.139	3960
6939.14	-2855	6939.14	-1385	6939.14	-927.5	6939.14	-3010	6939.14	3560
6939.141	-3027.5	6939.141	-1445	6939.141	-1032.5	6939.141	-3077.5	6939.141	3420
6939.142	-2582.5	6939.142	-955	6939.142	-585	6939.142	-2647.5	6939.142	3862.5
6939.143	-2270	6939.143	-567.5	6939.143	-212.5	6939.143	-2270	6939.143	4190
6939.144	-2742.5	6939.144	-1095	6939.144	-707.5	6939.144	-2660	6939.144	3625
6939.145	-3022.5	6939.145	-1442.5	6939.145	-1060	6939.145	-2992.5	6939.145	3190
6939.146	-2540	6939.146	-897.5	6939.146	-505	6939.146	-2585	6939.146	3770
6939.147	-1885	6939.147	-412.5	6939.147	40	6939.147	-2002.5	6939.147	4315
6939.148	-1195	6939.148	265	6939.148	620	6939.148	-1425	6939.148	4927.5
6939.149	-1230	6939.149	80	6939.149	517.5	6939.149	-1287.5	6939.149	4800
6939.15	-1235	6939.15	10	6939.15	330	6939.15	-1527.5	6939.15	4722.5
6939.151	-1380	6939.151	-217.5	6939.151	75	6939.151	-1682.5	6939.151	4540
6939.152	-1392.5	6939.152	-260	6939.152	-20	6939.152	-1837.5	6939.152	4470
6939.153	-1380	6939.153	-255	6939.153	15	6939.153	-1890	6939.153	4475
6939.154	-1400	6939.154	-317.5	6939.154	-152.5	6939.154	-1872.5	6939.154	4390
6939.155	-1477.5	6939.155	-385	6939.155	-142.5	6939.155	-2012.5	6939.155	4277.5
6939.156	-1635	6939.156	-487.5	6939.156	-322.5	6939.156	-2170	6939.156	4175
6939.157	-1695	6939.157	-510	6939.157	-337.5	6939.157	-2217.5	6939.157	4052.5
6939.158	-1850	6939.158	-615	6939.158	-412.5	6939.158	-2325	6939.158	3922.5
6939.159	-1950	6939.159	-662.5	6939.159	-437.5	6939.159	-2200	6939.159	3815
6939.16	-2110	6939.16	-705	6939.16	-517.5	6939.16	-2335	6939.16	3682.5
6939.161	-2137.5	6939.161	-782.5	6939.161	-580	6939.161	-2432.5	6939.161	3560
6939.162	-2165	6939.162	-785	6939.162	-527.5	6939.162	-2447.5	6939.162	3535
6939.163	-2207.5	6939.163	-792.5	6939.163	-497.5	6939.163	-2477.5	6939.163	3497.5
6939.164	-2150	6939.164	-795	6939.164	-515	6939.164	-2420	6939.164	3495
6939.165	-2102.5	6939.165	-725	6939.165	-397.5	6939.165	-2432.5	6939.165	3482.5
6939.166	-1997.5	6939.166	-672.5	6939.166	-385	6939.166	-2132.5	6939.166	3595
6939.167	-1870	6939.167	-607.5	6939.167	-385	6939.167	-2202.5	6939.167	3610
6939.168	-1650	6939.168	-520	6939.168	-207.5	6939.168	-2057.5	6939.168	3732.5
6939.169	-1597.5	6939.169	-385	6939.169	-157.5	6939.169	-2045	6939.169	3822.5
6939.17	-1412.5	6939.17	-380	6939.17	-117.5	6939.17	-1865	6939.17	3885
6939.171	-1250	6939.171	-280	6939.171	2.5	6939.171	-1792.5	6939.171	3972.5
6939.172	-1232.5	6939.172	-235	6939.172	-2.5	6939.172	-1850	6939.172	3962.5
6939.173	-1135	6939.173	-70	6939.173	42.5	6939.173	-1695	6939.173	4090
6939.174	-1077.5	6939.174	-75	6939.174	112.5	6939.174	-1657.5	6939.174	4040
6939.175	-1052.5	6939.175	-60	6939.175	57.5	6939.175	-1837.5	6939.175	4052.5
6939.176	-1087.5	6939.176	-100	6939.176	60	6939.176	-1910	6939.176	3967.5
6939.177	-1207.5	6939.177	-182.5	6939.177	-5	6939.177	-1942.5	6939.177	3890
6939.178	-1275	6939.178	-255	6939.178	30	6939.178	-1960	6939.178	3760
6939.179	-1312.5	6939.179	-210	6939.179	57.5	6939.179	-2070	6939.179	3660
6939.18	-1457.5	6939.18	-220	6939.18	0	6939.18	-2062.5	6939.18	3607.5
6939.181	-1565	6939.181	-315	6939.181	-75	6939.181	-2237.5	6939.181	3510
6939.182	-1547.5	6939.182	-282.5	6939.182	15	6939.182	-2140	6939.182	3452.5
6939.183	-1595	6939.183	-195	6939.183	-50	6939.183	-2120	6939.183	3415
6939.184	-1507.5	6939.184	-220	6939.184	77.5	6939.184	-1917.5	6939.184	3402.5
6939.185	-1425	6939.185	-177.5	6939.185	160	6939.185	-1965	6939.185	3507.5
6939.186	-1280	6939.186	-80	6939.186	260	6939.186	-1757.5	6939.186	3577.5
6939.187	-1157.5	6939.187	75	6939.187	317.5	6939.187	-1732.5	6939.187	3617.5
6939.188	-955	6939.188	182.5	6939.188	380	6939.188	-1545	6939.188	3660
6939.189	-847.5	6939.189	297.5	6939.189	440	6939.189	-1622.5	6939.189	3782.5
6939.19	-712.5	6939.19	357.5	6939.19	580	6939.19	-1512.5	6939.19	3837.5
6939.191	-522.5	6939.191	482.5	6939.191	540	6939.191	-1315	6939.191	3887.5
6939.192	-577.5	6939.192	467.5	6939.192	657.5	6939.192	-1407.5	6939.192	3950
6939.193	-362.5	6939.193	545	6939.193	645	6939.193	-1307.5	6939.193	4017.5
6939.194	-310	6939.194	665	6939.194	655	6939.194	-1365	6939.194	3990
6939.195	-265	6939.195	667.5	6939.195	700	6939.195	-1305	6939.195	3890
6939.196	-302.5	6939.196	677.5	6939.196	620	6939.196	-1367.5	6939.196	3872.5
6939.197	-360	6939.197	675	6939.197	740	6939.197	-1327.5	6939.197	3855
6939.198	-517.5	6939.198	657.5	6939.198	670	6939.198	-1377.5	6939.198	3712.5
6939.199	-542.5	6939.199	627.5	6939.199	752.5	6939.199	-1457.5	6939.199	3682.5
6939.2	-612.5	6939.2	582.5	6939.2	660	6939.2	-1370	6939.2	3617.5
6939.201	-927.5	6939.201	427.5	6939.201	702.5	6939.201	-1710	6939.201	3445
6939.202	-1060	6939.202	387.5	6939.202	700	6939.202	-1622.5	6939.202	3452.5
6939.203	467.5	6939.203	1872.5	6939.203	2127.5	6939.203	-45	6939.203	4997.5
6939.204	2352.5	6939.204	3672.5	6939.204	3342.5	6939.204	2052.5	6939.204	6620
6939.205	5442.5	6939.205	6242.5	6939.205	4870	6939.205	5540	6939.205	8980
6939.206	8000	6939.206	7652.5	6939.206	4920	6939.206	8667.5	6939.206	10280
6939.207	13062.5	6939.207	12292.5	6939.207	8500	6939.207	14195	6939.207	14672.5
6939.208	19115	6939.208	18807.5	6939.208	14727.5	6939.208	19862.5	6939.208	21195
6939.209	27575	6939.209	29960	6939.209	26232.5	6939.209	26855	6939.209	32077.5
6939.21	38947.5	6939.21	45482.5	6939.21	40365	6939.21	35825	6939.21	45975
6939.211	46535	6939.211	57565	6939.211	49377.5	6939.211	40017.5	6939.211	54865
6939.212	53297.5	6939.212	65907.5	6939.212	55445	6939.212	44432.5	6939.212	59110
6939.213	62037.5	6939.213	74390	6939.213	61212.5	6939.213	50432.5	6939.213	64422.5
6939.214	62772.5	6939.214	81530	6939.214	58582.5	6939.214	37677.5	6939.214	70292.5
6939.215	6315	6939.215	81917.5	6939.215	41420	6939.215	-13562.5	6939.215	71437.5
6939.216	-260	6939.216	20257.5	6939.216	23517.5	6939.216	-5280	6939.216	-4542.5
6939.217	8102.5	6939.217	1732.5	6939.217	-18890	6939.217	1380	6939.217	2585
6939.218	9990	6939.218	8112.5	6939.218	-1910	6939.218	3557.5	6939.218	7050
6939.219	10032.5	6939.219	10917.5	6939.219	2837.5	6939.219	4245	6939.219	8017.5
6939.22	10302.5	6939.22	12025	6939.22	4970	6939.22	5012.5	6939.22	8317.5
6939.221	11197.5	6939.221	13105	6939.221	6780	6939.221	6160	6939.221	8775
6939.222	11052.5	6939.222	12605	6939.222	7070	6939.222	6297.5	6939.222	8150
6939.223	11127.5	6939.223	12455	6939.223	7437.5	6939.223	6105	6939.223	7410
6939.224	11887.5	6939.224	13092.5	6939.224	8367.5	6939.224	6735	6939.224	7580
6939.225	12345	6939.225	13532.5	6939.225	8990	6939.225	6980	6939.225	7465
6939.226	12585	6939.226	13535	6939.226	9272.5	6939.226	6817.5	6939.226	7137.5
6939.227	12967.5	6939.227	13805	6939.227	9520	6939.227	6905	6939.227	7250
6939.228	13685	6939.228	14782.5	6939.228	10345	6939.228	7215	6939.228	7982.5
6939.229	14822.5	6939.229	16420	6939.229	11417.5	6939.229	7880	6939.229	9280
6939.23	15947.5	6939.23	18085	6939.23	12142.5	6939.23	8562.5	6939.23	10815
6939.231	16967.5	6939.231	19955	6939.231	12732.5	6939.231	9257.5	6939.231	12592.5
6939.232	17915	6939.232	21725	6939.232	13095	6939.232	9777.5	6939.232	14360
6939.233	18772.5	6939.233	23365	6939.233	13480	6939.233	10335	6939.233	16127.5
6939.234	19467.5	6939.234	24725	6939.234	13747.5	6939.234	10807.5	6939.234	17812.5
6939.235	19825	6939.235	25637.5	6939.235	13892.5	6939.235	11267.5	6939.235	19227.5
6939.236	20095	6939.236	26190	6939.236	14007.5	6939.236	11650	6939.236	20285
6939.237	20142.5	6939.237	26532.5	6939.237	14165	6939.237	12042.5	6939.237	21085
6939.238	20072.5	6939.238	26652.5	6939.238	14222.5	6939.238	12137.5	6939.238	21582.5
6939.239	19847.5	6939.239	26570	6939.239	14237.5	6939.239	12385	6939.239	21897.5
6939.24	19512.5	6939.24	26375	6939.24	14265	6939.24	12355	6939.24	22007.5
6939.241	19127.5	6939.241	26075	6939.241	14190	6939.241	12290	6939.241	21942.5
6939.242	18722.5	6939.242	25702.5	6939.242	14175	6939.242	12265	6939.242	21792.5
6939.243	18277.5	6939.243	25260	6939.243	14095	6939.243	11962.5	6939.243	21482.5
6939.244	17765	6939.244	24745	6939.244	13967.5	6939.244	11897.5	6939.244	21157.5
6939.245	17337.5	6939.245	24267.5	6939.245	13780	6939.245	11635	6939.245	20822.5
6939.246	16900	6939.246	23792.5	6939.246	13622.5	6939.246	11337.5	6939.246	20302.5
6939.247	16377.5	6939.247	23267.5	6939.247	13365	6939.247	10937.5	6939.247	19822.5
6939.248	16002.5	6939.248	22740	6939.248	13142.5	6939.248	10647.5	6939.248	19390
6939.249	15565	6939.249	22212.5	6939.249	12852.5	6939.249	10232.5	6939.249	18817.5
6939.25	15055	6939.25	21685	6939.25	12465	6939.25	9920	6939.25	18300
6939.251	14595	6939.251	21182.5	6939.251	12192.5	6939.251	9655	6939.251	17820
6939.252	14077.5	6939.252	20660	6939.252	11810	6939.252	9107.5	6939.252	17277.5
6939.253	13560	6939.253	20080	6939.253	11452.5	6939.253	8752.5	6939.253	16760
6939.254	13037.5	6939.254	19505	6939.254	11117.5	6939.254	8190	6939.254	16132.5
6939.255	12532.5	6939.255	18870	6939.255	10642.5	6939.255	7945	6939.255	15595
6939.256	11890	6939.256	18155	6939.256	10145	6939.256	7275	6939.256	14960
6939.257	11327.5	6939.257	17452.5	6939.257	9752.5	6939.257	6945	6939.257	14322.5
6939.258	10722.5	6939.258	16667.5	6939.258	9267.5	6939.258	6500	6939.258	13737.5
6939.259	10152.5	6939.259	15857.5	6939.259	8947.5	6939.259	6140	6939.259	13155
6939.26	9625	6939.26	15007.5	6939.26	8552.5	6939.26	5702.5	6939.26	12550
6939.261	9035	6939.261	14062.5	6939.261	8172.5	6939.261	5347.5	6939.261	11997.5
6939.262	8657.5	6939.262	13270	6939.262	7810	6939.262	5057.5	6939.262	11545
6939.263	8242.5	6939.263	12502.5	6939.263	7375	6939.263	4630	6939.263	11115
6939.264	7902.5	6939.264	11675	6939.264	7130	6939.264	4517.5	6939.264	10620
6939.265	7452.5	6939.265	10970	6939.265	6755	6939.265	4232.5	6939.265	10272.5
6939.266	7287.5	6939.266	10285	6939.266	6517.5	6939.266	4147.5	6939.266	9827.5
6939.267	6972.5	6939.267	9645	6939.267	6287.5	6939.267	3952.5	6939.267	9377.5
6939.268	6797.5	6939.268	9095	6939.268	5990	6939.268	3770	6939.268	8737.5
6939.269	6512.5	6939.269	8485	6939.269	5777.5	6939.269	3505	6939.269	7932.5
6939.27	6357.5	6939.27	8035	6939.27	5512.5	6939.27	3392.5	6939.27	6972.5
6939.271	6155	6939.271	7512.5	6939.271	5325	6939.271	3275	6939.271	5920
6939.272	5920	6939.272	6997.5	6939.272	5087.5	6939.272	3155	6939.272	4962.5
6939.273	5700	6939.273	6532.5	6939.273	4917.5	6939.273	2850	6939.273	4065
6939.274	5430	6939.274	5982.5	6939.274	4642.5	6939.274	2890	6939.274	3170
6939.275	5077.5	6939.275	5487.5	6939.275	4315	6939.275	2670	6939.275	2332.5
6939.276	4787.5	6939.276	5022.5	6939.276	4080	6939.276	2377.5	6939.276	1592.5
6939.277	4532.5	6939.277	4547.5	6939.277	3820	6939.277	2280	6939.277	852.5
6939.278	4160	6939.278	4032.5	6939.278	3497.5	6939.278	2227.5	6939.278	162.5
6939.279	3777.5	6939.279	3670	6939.279	3270	6939.279	1975	6939.279	-405
6939.28	3452.5	6939.28	3177.5	6939.28	3032.5	6939.28	1782.5	6939.28	-1020
6939.281	3097.5	6939.281	2725	6939.281	2782.5	6939.281	1557.5	6939.281	-1605
6939.282	2877.5	6939.282	2295	6939.282	2575	6939.282	1450	6939.282	-2052.5
6939.283	2615	6939.283	1935	6939.283	2342.5	6939.283	1267.5	6939.283	-2527.5
6939.284	2352.5	6939.284	1572.5	6939.284	2145	6939.284	1197.5	6939.284	-2947.5
6939.285	2132.5	6939.285	1250	6939.285	2082.5	6939.285	1215	6939.285	-3285
6939.286	2097.5	6939.286	927.5	6939.286	1855	6939.286	1067.5	6939.286	-3625
6939.287	1935	6939.287	645	6939.287	1687.5	6939.287	1072.5	6939.287	-3862.5
6939.288	1777.5	6939.288	270	6939.288	1482.5	6939.288	915	6939.288	-4100
6939.289	1665	6939.289	-55	6939.289	1397.5	6939.289	867.5	6939.289	-4417.5
6939.29	1567.5	6939.29	-367.5	6939.29	1262.5	6939.29	835	6939.29	-4622.5
6939.291	1425	6939.291	-547.5	6939.291	1067.5	6939.291	740	6939.291	-4852.5
6939.292	1287.5	6939.292	-940	6939.292	877.5	6939.292	710	6939.292	-5105
6939.293	1092.5	6939.293	-1235	6939.293	727.5	6939.293	602.5	6939.293	-5397.5
6939.294	890	6939.294	-1485	6939.294	497.5	6939.294	460	6939.294	-5647.5
6939.295	675	6939.295	-1880	6939.295	297.5	6939.295	330	6939.295	-5955
6939.296	405	6939.296	-2285	6939.296	-17.5	6939.296	97.5	6939.296	-6272.5
6939.297	122.5	6939.297	-2602.5	6939.297	-225	6939.297	-60	6939.297	-6555
6939.298	-272.5	6939.298	-3040	6939.298	-502.5	6939.298	-355	6939.298	-6917.5
6939.299	-610	6939.299	-3362.5	6939.299	-695	6939.299	-365	6939.299	-7252.5
6939.3	-912.5	6939.3	-3697.5	6939.3	-827.5	6939.3	-520	6939.3	-7627.5
6939.301	-1260	6939.301	-4055	6939.301	-1000	6939.301	-765	6939.301	-7895
6939.302	-1470	6939.302	-4315	6939.302	-1175	6939.302	-745	6939.302	-8187.5
6939.303	-1700	6939.303	-4692.5	6939.303	-1357.5	6939.303	-940	6939.303	-8482.5
6939.304	-1880	6939.304	-4960	6939.304	-1392.5	6939.304	-995	6939.304	-8682.5
6939.305	-2030	6939.305	-5155	6939.305	-1472.5	6939.305	-1160	6939.305	-8862.5
6939.306	-2147.5	6939.306	-5417.5	6939.306	-1687.5	6939.306	-1130	6939.306	-9037.5
6939.307	-2322.5	6939.307	-5555	6939.307	-1832.5	6939.307	-1237.5	6939.307	-9180
6939.308	-2275	6939.308	-5717.5	6939.308	-1817.5	6939.308	-1220	6939.308	-9185
6939.309	-2405	6939.309	-5990	6939.309	-1885	6939.309	-1345	6939.309	-9255
6939.31	-2502.5	6939.31	-6150	6939.31	-2052.5	6939.31	-1275	6939.31	-9340
6939.311	-2582.5	6939.311	-6280	6939.311	-2127.5	6939.311	-1405	6939.311	-9467.5
6939.312	-2757.5	6939.312	-6507.5	6939.312	-2262.5	6939.312	-1425	6939.312	-9622.5
6939.313	-2845	6939.313	-6715	6939.313	-2302.5	6939.313	-1457.5	6939.313	-9735
6939.314	-3032.5	6939.314	-6855	6939.314	-2480	6939.314	-1635	6939.314	-9827.5
6939.315	-3182.5	6939.315	-7077.5	6939.315	-2602.5	6939.315	-1767.5	6939.315	-10040
6939.316	-3445	6939.316	-7292.5	6939.316	-2732.5	6939.316	-1862.5	6939.316	-10212.5
6939.317	-3707.5	6939.317	-7532.5	6939.317	-2855	6939.317	-2035	6939.317	-10452.5
6939.318	-3950	6939.318	-7730	6939.318	-3005	6939.318	-2240	6939.318	-10672.5
6939.319	-4192.5	6939.319	-7942.5	6939.319	-3222.5	6939.319	-2340	6939.319	-10870
6939.32	-4375	6939.32	-8142.5	6939.32	-3327.5	6939.32	-2355	6939.32	-11095
6939.321	-4622.5	6939.321	-8385	6939.321	-3472.5	6939.321	-2455	6939.321	-11320
6939.322	-4865	6939.322	-8522.5	6939.322	-3550	6939.322	-2542.5	6939.322	-11510
6939.323	-5022.5	6939.323	-8647.5	6939.323	-3615	6939.323	-2542.5	6939.323	-11620
6939.324	-5090	6939.324	-8810	6939.324	-3725	6939.324	-2612.5	6939.324	-11735
6939.325	-5150	6939.325	-8875	6939.325	-3742.5	6939.325	-2597.5	6939.325	-11817.5
6939.326	-5162.5	6939.326	-8952.5	6939.326	-3757.5	6939.326	-2737.5	6939.326	-11802.5
6939.327	-5162.5	6939.327	-9012.5	6939.327	-3737.5	6939.327	-2720	6939.327	-11845
6939.328	-5050	6939.328	-9045	6939.328	-3840	6939.328	-2687.5	6939.328	-11785
6939.329	-5095	6939.329	-9155	6939.329	-3802.5	6939.329	-2592.5	6939.329	-11817.5
6939.33	-5112.5	6939.33	-9190	6939.33	-3892.5	6939.33	-2620	6939.33	-11707.5
6939.331	-5090	6939.331	-9180	6939.331	-3795	6939.331	-2670	6939.331	-11775
6939.332	-5120	6939.332	-9185	6939.332	-3872.5	6939.332	-2552.5	6939.332	-11730
6939.333	-5180	6939.333	-9275	6939.333	-3915	6939.333	-2735	6939.333	-11760
6939.334	-5170	6939.334	-9302.5	6939.334	-3947.5	6939.334	-2737.5	6939.334	-11752.5
6939.335	-5320	6939.335	-9382.5	6939.335	-3982.5	6939.335	-2692.5	6939.335	-11760
6939.336	-5345	6939.336	-9567.5	6939.336	-4157.5	6939.336	-2877.5	6939.336	-11872.5
6939.337	-5555	6939.337	-9642.5	6939.337	-4185	6939.337	-2972.5	6939.337	-11945
6939.338	-5730	6939.338	-9667.5	6939.338	-4230	6939.338	-2890	6939.338	-12110
6939.339	-5875	6939.339	-9820	6939.339	-4317.5	6939.339	-2992.5	6939.339	-12177.5
6939.34	-6042.5	6939.34	-9857.5	6939.34	-4440	6939.34	-3197.5	6939.34	-12345
6939.341	-6205	6939.341	-10010	6939.341	-4435	6939.341	-3092.5	6939.341	-12357.5
6939.342	-6250	6939.342	-10005	6939.342	-4512.5	6939.342	-3215	6939.342	-12415
6939.343	-6367.5	6939.343	-10100	6939.343	-4537.5	6939.343	-3110	6939.343	-12517.5
6939.344	-6347.5	6939.344	-10045	6939.344	-4567.5	6939.344	-3152.5	6939.344	-12527.5
6939.345	-6315	6939.345	-10045	6939.345	-4532.5	6939.345	-3117.5	6939.345	-12522.5
6939.346	-6252.5	6939.346	-10077.5	6939.346	-4515	6939.346	-3090	6939.346	-12445
6939.347	-6147.5	6939.347	-9965	6939.347	-4495	6939.347	-2887.5	6939.347	-12305
6939.348	-5992.5	6939.348	-9890	6939.348	-4430	6939.348	-2660	6939.348	-12242.5
6939.349	-5920	6939.349	-9880	6939.349	-4470	6939.349	-2817.5	6939.349	-12165
6939.35	-5872.5	6939.35	-9825	6939.35	-4395	6939.35	-2657.5	6939.35	-12022.5
6939.351	-5750	6939.351	-9770	6939.351	-4382.5	6939.351	-2567.5	6939.351	-11875
6939.352	-5737.5	6939.352	-9705	6939.352	-4370	6939.352	-2555	6939.352	-11857.5
6939.353	-5690	6939.353	-9610	6939.353	-4375	6939.353	-2465	6939.353	-11785
6939.354	-5670	6939.354	-9660	6939.354	-4462.5	6939.354	-2507.5	6939.354	-11792.5
6939.355	-5642.5	6939.355	-9625	6939.355	-4412.5	6939.355	-2400	6939.355	-11730
6939.356	-5745	6939.356	-9702.5	6939.356	-4480	6939.356	-2545	6939.356	-11777.5
6939.357	-5822.5	6939.357	-9637.5	6939.357	-4542.5	6939.357	-2545	6939.357	-11802.5
6939.358	-5950	6939.358	-9697.5	6939.358	-4647.5	6939.358	-2502.5	6939.358	-11947.5
6939.359	-5960	6939.359	-9715	6939.359	-4677.5	6939.359	-2592.5	6939.359	-11972.5
6939.36	-6125	6939.36	-9722.5	6939.36	-4672.5	6939.36	-2620	6939.36	-12020
6939.361	-6237.5	6939.361	-9807.5	6939.361	-4640	6939.361	-2547.5	6939.361	-12020
6939.362	-6260	6939.362	-9752.5	6939.362	-4720	6939.362	-2552.5	6939.362	-12170
6939.363	-6287.5	6939.363	-9762.5	6939.363	-4767.5	6939.363	-2562.5	6939.363	-12120
6939.364	-6270	6939.364	-9742.5	6939.364	-4722.5	6939.364	-2642.5	6939.364	-12030
6939.365	-6157.5	6939.365	-9697.5	6939.365	-4720	6939.365	-2440	6939.365	-11950
6939.366	-6045	6939.366	-9635	6939.366	-4580	6939.366	-2270	6939.366	-11887.5
6939.367	-5912.5	6939.367	-9482.5	6939.367	-4630	6939.367	-2127.5	6939.367	-11757.5
6939.368	-5747.5	6939.368	-9405	6939.368	-4622.5	6939.368	-2020	6939.368	-11637.5
6939.369	-5582.5	6939.369	-9317.5	6939.369	-4542.5	6939.369	-1992.5	6939.369	-11557.5
6939.37	-5505	6939.37	-9202.5	6939.37	-4577.5	6939.37	-1852.5	6939.37	-11460
6939.371	-5390	6939.371	-9132.5	6939.371	-4482.5	6939.371	-1710	6939.371	-11210
6939.372	-5237.5	6939.372	-8952.5	6939.372	-4532.5	6939.372	-1612.5	6939.372	-11167.5
6939.373	-5175	6939.373	-8920	6939.373	-4567.5	6939.373	-1712.5	6939.373	-11060
6939.374	-5175	6939.374	-8900	6939.374	-4560	6939.374	-1560	6939.374	-11042.5
6939.375	-5180	6939.375	-8905	6939.375	-4577.5	6939.375	-1452.5	6939.375	-11037.5
6939.376	-5240	6939.376	-8922.5	6939.376	-4670	6939.376	-1582.5	6939.376	-11045
6939.377	-5247.5	6939.377	-8865	6939.377	-4722.5	6939.377	-1465	6939.377	-11102.5
6939.378	-5367.5	6939.378	-8910	6939.378	-4762.5	6939.378	-1475	6939.378	-11100
6939.379	-5382.5	6939.379	-8907.5	6939.379	-4802.5	6939.379	-1422.5	6939.379	-11090
6939.38	-5425	6939.38	-8950	6939.38	-4880	6939.38	-1485	6939.38	-11157.5
6939.381	-5572.5	6939.381	-8920	6939.381	-4950	6939.381	-1497.5	6939.381	-11242.5
6939.382	-5572.5	6939.382	-8880	6939.382	-4962.5	6939.382	-1455	6939.382	-11227.5
6939.383	-5587.5	6939.383	-8867.5	6939.383	-4975	6939.383	-1390	6939.383	-11225
6939.384	-5550	6939.384	-8852.5	6939.384	-5032.5	6939.384	-1435	6939.384	-11245
6939.385	-5457.5	6939.385	-8762.5	6939.385	-4902.5	6939.385	-1325	6939.385	-11117.5
6939.386	-5347.5	6939.386	-8652.5	6939.386	-4930	6939.386	-1162.5	6939.386	-11042.5
6939.387	-5222.5	6939.387	-8540	6939.387	-4912.5	6939.387	-1070	6939.387	-10875
6939.388	-5122.5	6939.388	-8545	6939.388	-4840	6939.388	-1012.5	6939.388	-10740
6939.389	-4935	6939.389	-8370	6939.389	-4810	6939.389	-897.5	6939.389	-10642.5
6939.39	-4857.5	6939.39	-8292.5	6939.39	-4832.5	6939.39	-792.5	6939.39	-10527.5
6939.391	-4692.5	6939.391	-8162.5	6939.391	-4722.5	6939.391	-655	6939.391	-10392.5
6939.392	-4597.5	6939.392	-8085	6939.392	-4787.5	6939.392	-732.5	6939.392	-10347.5
6939.393	-4590	6939.393	-8062.5	6939.393	-4710	6939.393	-615	6939.393	-10272.5
6939.394	-4517.5	6939.394	-8007.5	6939.394	-4802.5	6939.394	-567.5	6939.394	-10130
6939.395	-4502.5	6939.395	-7982.5	6939.395	-4867.5	6939.395	-460	6939.395	-10122.5
6939.396	-4577.5	6939.396	-8005	6939.396	-4862.5	6939.396	-587.5	6939.396	-10112.5
6939.397	-4632.5	6939.397	-7947.5	6939.397	-4935	6939.397	-550	6939.397	-10160
6939.398	-4765	6939.398	-8002.5	6939.398	-5020	6939.398	-565	6939.398	-10127.5
6939.399	-4835	6939.399	-8007.5	6939.399	-5065	6939.399	-712.5	6939.399	-10182.5
6939.4	-4905	6939.4	-8015	6939.4	-5050	6939.4	-630	6939.4	-10285
6939.401	-5022.5	6939.401	-8067.5	6939.401	-5142.5	6939.401	-605	6939.401	-10365
6939.402	-4965	6939.402	-8007.5	6939.402	-5152.5	6939.402	-520	6939.402	-10340
6939.403	-5007.5	6939.403	-8067.5	6939.403	-5112.5	6939.403	-682.5	6939.403	-10285
6939.404	-5002.5	6939.404	-7960	6939.404	-5080	6939.404	-630	6939.404	-10285
6939.405	-4890	6939.405	-7975	6939.405	-5177.5	6939.405	-457.5	6939.405	-10172.5
6939.406	-4797.5	6939.406	-7887.5	6939.406	-5090	6939.406	-435	6939.406	-10050
6939.407	-4732.5	6939.407	-7802.5	6939.407	-5040	6939.407	-302.5	6939.407	-9942.5
6939.408	-4570	6939.408	-7752.5	6939.408	-4912.5	6939.408	-227.5	6939.408	-9842.5
6939.409	-4477.5	6939.409	-7670	6939.409	-4850	6939.409	-137.5	6939.409	-9652.5
6939.41	-4335	6939.41	-7632.5	6939.41	-4822.5	6939.41	-72.5	6939.41	-9570
6939.411	-4167.5	6939.411	-7520	6939.411	-4865	6939.411	-25	6939.411	-9445
6939.412	-4117.5	6939.412	-7412.5	6939.412	-4792.5	6939.412	70	6939.412	-9357.5
6939.413	-4040	6939.413	-7392.5	6939.413	-4805	6939.413	115	6939.413	-9277.5
6939.414	-4067.5	6939.414	-7427.5	6939.414	-4810	6939.414	7.5	6939.414	-9205
6939.415	-3975	6939.415	-7402.5	6939.415	-4832.5	6939.415	97.5	6939.415	-9185
6939.416	-4102.5	6939.416	-7345	6939.416	-4815	6939.416	100	6939.416	-9150
6939.417	-4192.5	6939.417	-7412.5	6939.417	-4920	6939.417	87.5	6939.417	-9180
6939.418	-4275	6939.418	-7485	6939.418	-5005	6939.418	-42.5	6939.418	-9185
6939.419	-4355	6939.419	-7487.5	6939.419	-5042.5	6939.419	-30	6939.419	-9162.5
6939.42	-4442.5	6939.42	-7545	6939.42	-5057.5	6939.42	-85	6939.42	-9187.5
6939.421	-4522.5	6939.421	-7617.5	6939.421	-5087.5	6939.421	-55	6939.421	-9222.5
6939.422	-4545	6939.422	-7595	6939.422	-5005	6939.422	-67.5	6939.422	-9225
6939.423	-4535	6939.423	-7582.5	6939.423	-4967.5	6939.423	-32.5	6939.423	-9160
6939.424	-4557.5	6939.424	-7522.5	6939.424	-5067.5	6939.424	37.5	6939.424	-9062.5
6939.425	-4507.5	6939.425	-7605	6939.425	-4967.5	6939.425	55	6939.425	-9027.5
6939.426	-4422.5	6939.426	-7542.5	6939.426	-4965	6939.426	35	6939.426	-8877.5
6939.427	-4290	6939.427	-7425	6939.427	-4837.5	6939.427	130	6939.427	-8697.5
6939.428	-4137.5	6939.428	-7352.5	6939.428	-4805	6939.428	255	6939.428	-8532.5
6939.429	-4042.5	6939.429	-7237.5	6939.429	-4745	6939.429	240	6939.429	-8315
6939.43	-3972.5	6939.43	-7255	6939.43	-4717.5	6939.43	265	6939.43	-8130
6939.431	-3825	6939.431	-7205	6939.431	-4592.5	6939.431	447.5	6939.431	-8002.5
6939.432	-3747.5	6939.432	-7095	6939.432	-4617.5	6939.432	470	6939.432	-7802.5
6939.433	-3715	6939.433	-7077.5	6939.433	-4515	6939.433	497.5	6939.433	-7660
6939.434	-3577.5	6939.434	-6997.5	6939.434	-4472.5	6939.434	495	6939.434	-7512.5
6939.435	-3642.5	6939.435	-6982.5	6939.435	-4465	6939.435	382.5	6939.435	-7390
6939.436	-3705	6939.436	-7055	6939.436	-4587.5	6939.436	372.5	6939.436	-7430
6939.437	-3835	6939.437	-7102.5	6939.437	-4527.5	6939.437	387.5	6939.437	-7290
6939.438	-3902.5	6939.438	-7152.5	6939.438	-4562.5	6939.438	285	6939.438	-7295
6939.439	-4015	6939.439	-7182.5	6939.439	-4565	6939.439	285	6939.439	-7200
6939.44	-4100	6939.44	-7137.5	6939.44	-4552.5	6939.44	155	6939.44	-7150
6939.441	-4232.5	6939.441	-7205	6939.441	-4552.5	6939.441	150	6939.441	-7142.5
6939.442	-4250	6939.442	-7192.5	6939.442	-4532.5	6939.442	105	6939.442	-7040
6939.443	-4230	6939.443	-7205	6939.443	-4457.5	6939.443	92.5	6939.443	-6940
6939.444	-4252.5	6939.444	-7147.5	6939.444	-4435	6939.444	110	6939.444	-6857.5
6939.445	-4152.5	6939.445	-7110	6939.445	-4420	6939.445	265	6939.445	-6672.5
6939.446	-4035	6939.446	-6952.5	6939.446	-4292.5	6939.446	300	6939.446	-6467.5
6939.447	-3987.5	6939.447	-6895	6939.447	-4270	6939.447	382.5	6939.447	-6252.5
6939.448	-3812.5	6939.448	-6727.5	6939.448	-4112.5	6939.448	420	6939.448	-5997.5
6939.449	-3622.5	6939.449	-6662.5	6939.449	-4135	6939.449	405	6939.449	-5810
6939.45	-3625	6939.45	-6505	6939.45	-4010	6939.45	532.5	6939.45	-5620
6939.451	-3447.5	6939.451	-6342.5	6939.451	-3880	6939.451	600	6939.451	-5385
6939.452	-3392.5	6939.452	-6137.5	6939.452	-3860	6939.452	480	6939.452	-5222.5
6939.453	-3345	6939.453	-6062.5	6939.453	-3795	6939.453	647.5	6939.453	-5085
6939.454	-3342.5	6939.454	-5962.5	6939.454	-3705	6939.454	617.5	6939.454	-4977.5
6939.455	-3330	6939.455	-5827.5	6939.455	-3705	6939.455	612.5	6939.455	-4940
6939.456	-3407.5	6939.456	-5712.5	6939.456	-3742.5	6939.456	545	6939.456	-4907.5
6939.457	-3460	6939.457	-5635	6939.457	-3682.5	6939.457	412.5	6939.457	-4920
6939.458	-3590	6939.458	-5525	6939.458	-3687.5	6939.458	395	6939.458	-4932.5
6939.459	-3655	6939.459	-5452.5	6939.459	-3700	6939.459	292.5	6939.459	-4950
6939.46	-3672.5	6939.46	-5390	6939.46	-3637.5	6939.46	352.5	6939.46	-4987.5
6939.461	-3765	6939.461	-5320	6939.461	-3620	6939.461	115	6939.461	-4922.5
6939.462	-3855	6939.462	-5172.5	6939.462	-3545	6939.462	257.5	6939.462	-4990
6939.463	-3900	6939.463	-5057.5	6939.463	-3592.5	6939.463	290	6939.463	-4960
6939.464	-3910	6939.464	-4860	6939.464	-3482.5	6939.464	167.5	6939.464	-4955
6939.465	-3795	6939.465	-4670	6939.465	-3422.5	6939.465	395	6939.465	-4800
6939.466	-3705	6939.466	-4502.5	6939.466	-3327.5	6939.466	395	6939.466	-4595
6939.467	-3600	6939.467	-4285	6939.467	-3150	6939.467	380	6939.467	-4472.5
6939.468	-3307.5	6939.468	-4070	6939.468	-3107.5	6939.468	515	6939.468	-4280
6939.469	-3190	6939.469	-3897.5	6939.469	-2917.5	6939.469	497.5	6939.469	-4157.5
6939.47	-3132.5	6939.47	-3730	6939.47	-2927.5	6939.47	595	6939.47	-3995
6939.471	-3072.5	6939.471	-3572.5	6939.471	-2815	6939.471	617.5	6939.471	-3785
6939.472	-3047.5	6939.472	-3462.5	6939.472	-2707.5	6939.472	592.5	6939.472	-3682.5
6939.473	-2905	6939.473	-3245	6939.473	-2672.5	6939.473	655	6939.473	-3567.5
6939.474	-2930	6939.474	-3140	6939.474	-2612.5	6939.474	587.5	6939.474	-3422.5
6939.475	-2950	6939.475	-3027.5	6939.475	-2590	6939.475	527.5	6939.475	-3335
6939.476	-3025	6939.476	-2970	6939.476	-2567.5	6939.476	500	6939.476	-3292.5
6939.477	-3080	6939.477	-2917.5	6939.477	-2585	6939.477	420	6939.477	-3262.5
6939.478	-3147.5	6939.478	-2822.5	6939.478	-2587.5	6939.478	312.5	6939.478	-3170
6939.479	-3340	6939.479	-2867.5	6939.479	-2570	6939.479	290	6939.479	-3182.5
6939.48	-3325	6939.48	-2787.5	6939.48	-2592.5	6939.48	275	6939.48	-3115
6939.481	-3372.5	6939.481	-2812.5	6939.481	-2532.5	6939.481	210	6939.481	-3145
6939.482	-3447.5	6939.482	-2752.5	6939.482	-2515	6939.482	160	6939.482	-3072.5
6939.483	-3535	6939.483	-2740	6939.483	-2475	6939.483	227.5	6939.483	-3027.5
6939.484	-3470	6939.484	-2705	6939.484	-2380	6939.484	217.5	6939.484	-2942.5
6939.485	-3455	6939.485	-2570	6939.485	-2367.5	6939.485	185	6939.485	-2830
6939.486	-3342.5	6939.486	-2465	6939.486	-2195	6939.486	422.5	6939.486	-2605
6939.487	-3282.5	6939.487	-2395	6939.487	-2107.5	6939.487	302.5	6939.487	-2427.5
6939.488	-3150	6939.488	-2270	6939.488	-2067.5	6939.488	352.5	6939.488	-2172.5
6939.489	-3032.5	6939.489	-2235	6939.489	-2030	6939.489	470	6939.489	-1960
6939.49	-2920	6939.49	-2125	6939.49	-1842.5	6939.49	602.5	6939.49	-1660
6939.491	-2780	6939.491	-1997.5	6939.491	-1775	6939.491	582.5	6939.491	-1420
6939.492	-2780	6939.492	-1927.5	6939.492	-1730	6939.492	512.5	6939.492	-1220
6939.493	-2725	6939.493	-1875	6939.493	-1675	6939.493	630	6939.493	-932.5
6939.494	-2782.5	6939.494	-1842.5	6939.494	-1680	6939.494	552.5	6939.494	-712.5
6939.495	-2845	6939.495	-1867.5	6939.495	-1642.5	6939.495	525	6939.495	-560
6939.496	-2907.5	6939.496	-1830	6939.496	-1662.5	6939.496	490	6939.496	-447.5
6939.497	-2932.5	6939.497	-1850	6939.497	-1677.5	6939.497	412.5	6939.497	-305
6939.498	-3080	6939.498	-1832.5	6939.498	-1587.5	6939.498	225	6939.498	-287.5
6939.499	-3260	6939.499	-1825	6939.499	-1640	6939.499	337.5	6939.499	-260
6939.5	-3357.5	6939.5	-1907.5	6939.5	-1692.5	6939.5	242.5	6939.5	-155
6939.501	-3452.5	6939.501	-1922.5	6939.501	-1592.5	6939.501	182.5	6939.501	-112.5
6939.502	-3535	6939.502	-1845	6939.502	-1605	6939.502	182.5	6939.502	-57.5
6939.503	-3627.5	6939.503	-1897.5	6939.503	-1562.5	6939.503	205	6939.503	102.5
6939.504	-3615	6939.504	-1867.5	6939.504	-1537.5	6939.504	177.5	6939.504	227.5
6939.505	-3532.5	6939.505	-1842.5	6939.505	-1405	6939.505	155	6939.505	380
6939.506	-3482.5	6939.506	-1732.5	6939.506	-1390	6939.506	290	6939.506	637.5
6939.507	-3415	6939.507	-1605	6939.507	-1297.5	6939.507	430	6939.507	822.5
6939.508	-3362.5	6939.508	-1522.5	6939.508	-1277.5	6939.508	452.5	6939.508	1015
6939.509	-3287.5	6939.509	-1572.5	6939.509	-1150	6939.509	457.5	6939.509	1182.5
6939.51	-3185	6939.51	-1457.5	6939.51	-1115	6939.51	542.5	6939.51	1330
6939.511	-3127.5	6939.511	-1300	6939.511	-1040	6939.511	487.5	6939.511	1530
6939.512	-3140	6939.512	-1317.5	6939.512	-1042.5	6939.512	465	6939.512	1665
6939.513	-3040	6939.513	-1210	6939.513	-920	6939.513	487.5	6939.513	1832.5
6939.514	-3050	6939.514	-1190	6939.514	-885	6939.514	485	6939.514	1940
6939.515	-3082.5	6939.515	-1202.5	6939.515	-912.5	6939.515	505	6939.515	2020
6939.516	-3195	6939.516	-1182.5	6939.516	-942.5	6939.516	347.5	6939.516	2052.5
6939.517	-3257.5	6939.517	-1130	6939.517	-980	6939.517	377.5	6939.517	2030
6939.518	-3380	6939.518	-1297.5	6939.518	-1040	6939.518	235	6939.518	2012.5
6939.519	-3515	6939.519	-1272.5	6939.519	-1000	6939.519	162.5	6939.519	2000
6939.52	-3625	6939.52	-1275	6939.52	-1030	6939.52	137.5	6939.52	2015
6939.521	-3735	6939.521	-1347.5	6939.521	-980	6939.521	-42.5	6939.521	1982.5
6939.522	-3812.5	6939.522	-1352.5	6939.522	-975	6939.522	107.5	6939.522	2012.5
6939.523	-3852.5	6939.523	-1392.5	6939.523	-1040	6939.523	7.5	6939.523	1972.5
6939.524	-3895	6939.524	-1345	6939.524	-977.5	6939.524	17.5	6939.524	2072.5
6939.525	-3847.5	6939.525	-1345	6939.525	-977.5	6939.525	105	6939.525	2090
6939.526	-3732.5	6939.526	-1262.5	6939.526	-847.5	6939.526	147.5	6939.526	2200
6939.527	-3705	6939.527	-1187.5	6939.527	-825	6939.527	220	6939.527	2297.5
6939.528	-3595	6939.528	-1045	6939.528	-697.5	6939.528	212.5	6939.528	2460
6939.529	-3495	6939.529	-1057.5	6939.529	-682.5	6939.529	297.5	6939.529	2537.5
6939.53	-3395	6939.53	-967.5	6939.53	-557.5	6939.53	392.5	6939.53	2690
6939.531	-3317.5	6939.531	-915	6939.531	-590	6939.531	397.5	6939.531	2830
6939.532	-3245	6939.532	-837.5	6939.532	-550	6939.532	300	6939.532	2837.5
6939.533	-3197.5	6939.533	-825	6939.533	-525	6939.533	317.5	6939.533	2937.5
6939.534	-3157.5	6939.534	-857.5	6939.534	-560	6939.534	307.5	6939.534	2915
6939.535	-3202.5	6939.535	-845	6939.535	-485	6939.535	287.5	6939.535	2930
6939.536	-3252.5	6939.536	-842.5	6939.536	-472.5	6939.536	272.5	6939.536	2870
6939.537	-3350	6939.537	-950	6939.537	-615	6939.537	177.5	6939.537	2782.5
6939.538	-3437.5	6939.538	-920	6939.538	-565	6939.538	105	6939.538	2725
6939.539	-3542.5	6939.539	-985	6939.539	-542.5	6939.539	75	6939.539	2657.5
6939.54	-3637.5	6939.54	-1005	6939.54	-510	6939.54	-40	6939.54	2585
6939.541	-3715	6939.541	-1060	6939.541	-577.5	6939.541	-157.5	6939.541	2510
6939.542	-3815	6939.542	-1067.5	6939.542	-617.5	6939.542	-67.5	6939.542	2432.5
6939.543	-3892.5	6939.543	-1025	6939.543	-602.5	6939.543	-87.5	6939.543	2440
6939.544	-3810	6939.544	-1087.5	6939.544	-605	6939.544	-47.5	6939.544	2495
6939.545	-3745	6939.545	-997.5	6939.545	-647.5	6939.545	-135	6939.545	2490
6939.546	-3622.5	6939.546	-947.5	6939.546	-500	6939.546	-42.5	6939.546	2555
6939.547	-3490	6939.547	-880	6939.547	-445	6939.547	27.5	6939.547	2572.5
6939.548	-3395	6939.548	-732.5	6939.548	-415	6939.548	117.5	6939.548	2680
6939.549	-3265	6939.549	-685	6939.549	-370	6939.549	62.5	6939.549	2757.5
6939.55	-3245	6939.55	-590	6939.55	-337.5	6939.55	110	6939.55	2780
6939.551	-2990	6939.551	-522.5	6939.551	-247.5	6939.551	75	6939.551	2852.5
6939.552	-2985	6939.552	-492.5	6939.552	-190	6939.552	225	6939.552	2970
6939.553	-2817.5	6939.553	-435	6939.553	-260	6939.553	215	6939.553	3035
6939.554	-2827.5	6939.554	-395	6939.554	-210	6939.554	102.5	6939.554	3017.5
6939.555	-2917.5	6939.555	-495	6939.555	-292.5	6939.555	135	6939.555	2930
6939.556	-3007.5	6939.556	-500	6939.556	-290	6939.556	40	6939.556	2857.5
6939.557	-3045	6939.557	-495	6939.557	-317.5	6939.557	7.5	6939.557	2865
6939.558	-3150	6939.558	-595	6939.558	-330	6939.558	-72.5	6939.558	2687.5
6939.559	-3227.5	6939.559	-550	6939.559	-372.5	6939.559	-212.5	6939.559	2592.5
6939.56	-3340	6939.56	-630	6939.56	-405	6939.56	-357.5	6939.56	2470
6939.561	-3412.5	6939.561	-692.5	6939.561	-350	6939.561	-402.5	6939.561	2387.5
6939.562	-3490	6939.562	-710	6939.562	-302.5	6939.562	-332.5	6939.562	2315
6939.563	-3402.5	6939.563	-760	6939.563	-357.5	6939.563	-425	6939.563	2240
6939.564	-3435	6939.564	-762.5	6939.564	-257.5	6939.564	-322.5	6939.564	2295
6939.565	-3340	6939.565	-720	6939.565	-310	6939.565	-272.5	6939.565	2250
6939.566	-3222.5	6939.566	-617.5	6939.566	-237.5	6939.566	-282.5	6939.566	2320
6939.567	-3077.5	6939.567	-580	6939.567	-197.5	6939.567	-192.5	6939.567	2387.5
6939.568	-2982.5	6939.568	-472.5	6939.568	-125	6939.568	-77.5	6939.568	2442.5
6939.569	-2817.5	6939.569	-397.5	6939.569	-62.5	6939.569	-55	6939.569	2532.5
6939.57	-2737.5	6939.57	-352.5	6939.57	-67.5	6939.57	-150	6939.57	2580
6939.571	-2592.5	6939.571	-302.5	6939.571	50	6939.571	-27.5	6939.571	2650
6939.572	-2475	6939.572	-235	6939.572	92.5	6939.572	12.5	6939.572	2727.5
6939.573	-2427.5	6939.573	-160	6939.573	80	6939.573	52.5	6939.573	2792.5
6939.574	-2407.5	6939.574	-190	6939.574	142.5	6939.574	65	6939.574	2772.5
6939.575	-2330	6939.575	-182.5	6939.575	97.5	6939.575	47.5	6939.575	2760
6939.576	-2487.5	6939.576	-220	6939.576	87.5	6939.576	-20	6939.576	2645
6939.577	-2512.5	6939.577	-197.5	6939.577	35	6939.577	-150	6939.577	2555
6939.578	-2587.5	6939.578	-340	6939.578	10	6939.578	-292.5	6939.578	2472.5
6939.579	-2650	6939.579	-285	6939.579	0	6939.579	-280	6939.579	2387.5
6939.58	-2772.5	6939.58	-357.5	6939.58	-90	6939.58	-307.5	6939.58	2332.5
6939.581	-2880	6939.581	-425	6939.581	-45	6939.581	-435	6939.581	2235
6939.582	-2885	6939.582	-457.5	6939.582	-12.5	6939.582	-575	6939.582	2202.5
6939.583	-2872.5	6939.583	-370	6939.583	-65	6939.583	-370	6939.583	2145
6939.584	-2897.5	6939.584	-402.5	6939.584	-35	6939.584	-475	6939.584	2182.5
6939.585	-2820	6939.585	-340	6939.585	25	6939.585	-427.5	6939.585	2195
6939.586	-2710	6939.586	-337.5	6939.586	5	6939.586	-335	6939.586	2250
6939.587	-2620	6939.587	-222.5	6939.587	142.5	6939.587	-282.5	6939.587	2395
6939.588	-2490	6939.588	-200	6939.588	175	6939.588	-180	6939.588	2512.5
6939.589	-2327.5	6939.589	-145	6939.589	275	6939.589	-62.5	6939.589	2562.5
6939.59	-2210	6939.59	-117.5	6939.59	315	6939.59	-195	6939.59	2665
6939.591	-2102.5	6939.591	-40	6939.591	285	6939.591	-127.5	6939.591	2690
6939.592	-1955	6939.592	20	6939.592	335	6939.592	-55	6939.592	2812.5
6939.593	-1937.5	6939.593	100	6939.593	417.5	6939.593	-160	6939.593	2817.5
6939.594	-1920	6939.594	145	6939.594	355	6939.594	-137.5	6939.594	2915
6939.595	-1937.5	6939.595	-17.5	6939.595	360	6939.595	-192.5	6939.595	2822.5
6939.596	-1960	6939.596	27.5	6939.596	287.5	6939.596	-215	6939.596	2837.5
6939.597	-2007.5	6939.597	-30	6939.597	297.5	6939.597	-225	6939.597	2810
6939.598	-2057.5	6939.598	-22.5	6939.598	242.5	6939.598	-437.5	6939.598	2765
6939.599	-2097.5	6939.599	-15	6939.599	272.5	6939.599	-347.5	6939.599	2737.5
6939.6	-2267.5	6939.6	-90	6939.6	142.5	6939.6	-472.5	6939.6	2617.5
6939.601	-2352.5	6939.601	-130	6939.601	135	6939.601	-457.5	6939.601	2557.5
6939.602	-2182.5	6939.602	35	6939.602	352.5	6939.602	-340	6939.602	2710
6939.603	-1952.5	6939.603	270	6939.603	632.5	6939.603	-85	6939.603	2900
6939.604	-1325	6939.604	965	6939.604	1322.5	6939.604	557.5	6939.604	3647.5
6939.605	-732.5	6939.605	1600	6939.605	1987.5	6939.605	1092.5	6939.605	4282.5
6939.606	100	6939.606	2460	6939.606	2807.5	6939.606	2042.5	6939.606	5070
6939.607	867.5	6939.607	3165	6939.607	3500	6939.607	2600	6939.607	5815
6939.608	1580	6939.608	3757.5	6939.608	4057.5	6939.608	3372.5	6939.608	6447.5
6939.609	2427.5	6939.609	4675	6939.609	4915	6939.609	4207.5	6939.609	7257.5
6939.61	1902.5	6939.61	3992.5	6939.61	4292.5	6939.61	3437.5	6939.61	6602.5
6939.611	1855	6939.611	3957.5	6939.611	4127.5	6939.611	3372.5	6939.611	6600
6939.612	2335	6939.612	4307.5	6939.612	4405	6939.612	3620	6939.612	7020
6939.613	1750	6939.613	3630	6939.613	3857.5	6939.613	3015	6939.613	6410
6939.614	1542.5	6939.614	3427.5	6939.614	3487.5	6939.614	2785	6939.614	6180
6939.615	567.5	6939.615	2337.5	6939.615	2432.5	6939.615	1730	6939.615	5117.5
6939.616	-435	6939.616	1165	6939.616	1272.5	6939.616	557.5	6939.616	4037.5
6939.617	-702.5	6939.617	977.5	6939.617	1177.5	6939.617	347.5	6939.617	3860
6939.618	-1407.5	6939.618	302.5	6939.618	547.5	6939.618	-227.5	6939.618	3170
6939.619	-2235	6939.619	-587.5	6939.619	-425	6939.619	-1222.5	6939.619	2242.5
6939.62	-2550	6939.62	-820	6939.62	-717.5	6939.62	-1522.5	6939.62	1940
6939.621	-3212.5	6939.621	-1397.5	6939.621	-1240	6939.621	-2160	6939.621	1370
6939.622	-4040	6939.622	-2252.5	6939.622	-1977.5	6939.622	-2942.5	6939.622	472.5
6939.623	-4640	6939.623	-2865	6939.623	-2622.5	6939.623	-3705	6939.623	-52.5
6939.624	-4692.5	6939.624	-2860	6939.624	-2697.5	6939.624	-3655	6939.624	-102.5
