F4(X)	F4(Y)	F5(X)	F5(Y)	G2(X)	G2(Y)	G3(X)	G3(Y)
6938.063	-3562.5	6938.063	465	6938.063	-3235	6938.063	-4055
6938.064	-3497.5	6938.064	430	6938.064	-3082.5	6938.064	-3915
6938.065	-3437.5	6938.065	452.5	6938.065	-2947.5	6938.065	-3847.5
6938.066	-3335	6938.066	442.5	6938.066	-2720	6938.066	-3767.5
6938.067	-3272.5	6938.067	370	6938.067	-2552.5	6938.067	-3640
6938.068	-3232.5	6938.068	380	6938.068	-2342.5	6938.068	-3495
6938.069	-3162.5	6938.069	300	6938.069	-2157.5	6938.069	-3427.5
6938.07	-3115	6938.07	365	6938.07	-1942.5	6938.07	-3390
6938.071	-3050	6938.071	355	6938.071	-1777.5	6938.071	-3340
6938.072	-3000	6938.072	465	6938.072	-1625	6938.072	-3280
6938.073	-2917.5	6938.073	377.5	6938.073	-1520	6938.073	-3260
6938.074	-2877.5	6938.074	315	6938.074	-1460	6938.074	-3205
6938.075	-2885	6938.075	250	6938.075	-1487.5	6938.075	-3222.5
6938.076	-2842.5	6938.076	240	6938.076	-1422.5	6938.076	-3240
6938.077	-2802.5	6938.077	130	6938.077	-1480	6938.077	-3292.5
6938.078	-2800	6938.078	135	6938.078	-1395	6938.078	-3215
6938.079	-2745	6938.079	97.5	6938.079	-1442.5	6938.079	-3280
6938.08	-2722.5	6938.08	82.5	6938.08	-1445	6938.08	-3290
6938.081	-2715	6938.081	65	6938.081	-1400	6938.081	-3265
6938.082	-2612.5	6938.082	-37.5	6938.082	-1312.5	6938.082	-3222.5
6938.083	-2577.5	6938.083	-70	6938.083	-1212.5	6938.083	-3207.5
6938.084	-2565	6938.084	-32.5	6938.084	-1097.5	6938.084	-3147.5
6938.085	-2497.5	6938.085	-132.5	6938.085	-897.5	6938.085	-3080
6938.086	-2395	6938.086	-140	6938.086	-805	6938.086	-2992.5
6938.087	-2330	6938.087	-180	6938.087	-590	6938.087	-2852.5
6938.088	-2245	6938.088	-152.5	6938.088	-367.5	6938.088	-2737.5
6938.089	-2235	6938.089	-167.5	6938.089	-217.5	6938.089	-2735
6938.09	-2155	6938.09	-32.5	6938.09	-30	6938.09	-2632.5
6938.091	-2120	6938.091	7.5	6938.091	100	6938.091	-2537.5
6938.092	-2030	6938.092	-57.5	6938.092	302.5	6938.092	-2367.5
6938.093	-1930	6938.093	30	6938.093	382.5	6938.093	-2375
6938.094	-1935	6938.094	-17.5	6938.094	477.5	6938.094	-2367.5
6938.095	-1935	6938.095	-102.5	6938.095	462.5	6938.095	-2402.5
6938.096	-1890	6938.096	-152.5	6938.096	472.5	6938.096	-2335
6938.097	-1850	6938.097	-317.5	6938.097	500	6938.097	-2367.5
6938.098	-1762.5	6938.098	-335	6938.098	470	6938.098	-2347.5
6938.099	-1717.5	6938.099	-487.5	6938.099	477.5	6938.099	-2357.5
6938.1	-1725	6938.1	-390	6938.1	462.5	6938.1	-2330
6938.101	-1622.5	6938.101	-395	6938.101	472.5	6938.101	-2322.5
6938.102	-1575	6938.102	-447.5	6938.102	492.5	6938.102	-2227.5
6938.103	-1487.5	6938.103	-350	6938.103	572.5	6938.103	-2200
6938.104	-1455	6938.104	-372.5	6938.104	717.5	6938.104	-2210
6938.105	-1480	6938.105	-307.5	6938.105	780	6938.105	-2177.5
6938.106	-1482.5	6938.106	-437.5	6938.106	970	6938.106	-2315
6938.107	-1262.5	6938.107	-255	6938.107	1605	6938.107	-2130
6938.108	335	6938.108	900	6938.108	3657.5	6938.108	-427.5
6938.109	2052.5	6938.109	1795	6938.109	5975	6938.109	1532.5
6938.11	3502.5	6938.11	1850	6938.11	8335	6938.11	3857.5
6938.111	5547.5	6938.111	2387.5	6938.111	11055	6938.111	6785
6938.112	11107.5	6938.112	7200	6938.112	16060	6938.112	12500
6938.113	18822.5	6938.113	16320	6938.113	21017.5	6938.113	18990
6938.114	32200	6938.114	33032.5	6938.114	29307.5	6938.114	30182.5
6938.115	44080	6938.115	49650	6938.115	35890	6938.115	40037.5
6938.116	52200	6938.116	60627.5	6938.116	39180	6938.116	47085
6938.117	59310	6938.117	67115	6938.117	45372.5	6938.117	53620
6938.118	68930	6938.118	76452.5	6938.118	50250	6938.118	60052.5
6938.119	71125	6938.119	81917.5	6938.119	33582.5	6938.119	56422.5
6938.12	24752.5	6938.12	19792.5	6938.12	-11102.5	6938.12	39135
6938.121	15555	6938.121	-8982.5	6938.121	-1815	6938.121	39162.5
6938.122	10862.5	6938.122	4060	6938.122	2015	6938.122	28412.5
6938.123	247.5	6938.123	9662.5	6938.123	3437.5	6938.123	8030
6938.124	-257.5	6938.124	11075	6938.124	3290	6938.124	4305
6938.125	547.5	6938.125	12610	6938.125	3727.5	6938.125	4465
6938.126	1800	6938.126	13917.5	6938.126	4355	6938.126	4917.5
6938.127	1502.5	6938.127	14040	6938.127	3915	6938.127	4187.5
6938.128	2460	6938.128	14560	6938.128	3720	6938.128	4527.5
6938.129	3402.5	6938.129	15525	6938.129	3642.5	6938.129	5185
6938.13	4260	6938.13	16547.5	6938.13	3440	6938.13	5845
6938.131	4185	6938.131	16760	6938.131	2730	6938.131	5787.5
6938.132	4402.5	6938.132	17525	6938.132	2435	6938.132	6185
6938.133	5292.5	6938.133	18857.5	6938.133	2450	6938.133	7020
6938.134	6275	6938.134	20137.5	6938.134	2665	6938.134	8217.5
6938.135	7165	6938.135	21237.5	6938.135	2895	6938.135	9375
6938.136	8202.5	6938.136	21985	6938.136	3107.5	6938.136	10677.5
6938.137	9255	6938.137	22582.5	6938.137	3460	6938.137	12175
6938.138	10390	6938.138	22965	6938.138	3925	6938.138	13597.5
6938.139	11455	6938.139	22972.5	6938.139	4447.5	6938.139	14942.5
6938.14	12457.5	6938.14	23040	6938.14	5175	6938.14	16242.5
6938.141	13352.5	6938.141	22832.5	6938.141	6020	6938.141	17295
6938.142	14122.5	6938.142	22412.5	6938.142	6790	6938.142	18210
6938.143	14722.5	6938.143	21972.5	6938.143	7640	6938.143	18900
6938.144	15170	6938.144	21445	6938.144	8480	6938.144	19472.5
6938.145	15527.5	6938.145	20780	6938.145	9297.5	6938.145	19922.5
6938.146	15687.5	6938.146	20172.5	6938.146	9982.5	6938.146	20167.5
6938.147	15762.5	6938.147	19560	6938.147	10565	6938.147	20362.5
6938.148	15737.5	6938.148	18842.5	6938.148	11075	6938.148	20340
6938.149	15640	6938.149	18215	6938.149	11387.5	6938.149	20242.5
6938.15	15492.5	6938.15	17547.5	6938.15	11570	6938.15	20057.5
6938.151	15210	6938.151	16727.5	6938.151	11642.5	6938.151	19800
6938.152	14932.5	6938.152	16120	6938.152	11597.5	6938.152	19452.5
6938.153	14615	6938.153	15392.5	6938.153	11420	6938.153	19055
6938.154	14215	6938.154	14602.5	6938.154	11177.5	6938.154	18640
6938.155	13787.5	6938.155	13832.5	6938.155	10895	6938.155	18132.5
6938.156	13397.5	6938.156	13097.5	6938.156	10550	6938.156	17630
6938.157	12947.5	6938.157	12410	6938.157	10052.5	6938.157	17010
6938.158	12537.5	6938.158	11687.5	6938.158	9580	6938.158	16430
6938.159	12075	6938.159	11015	6938.159	9222.5	6938.159	15925
6938.16	11610	6938.16	10360	6938.16	8647.5	6938.16	15355
6938.161	11165	6938.161	9730	6938.161	8275	6938.161	14787.5
6938.162	10757.5	6938.162	9097.5	6938.162	7877.5	6938.162	14242.5
6938.163	10335	6938.163	8455	6938.163	7467.5	6938.163	13757.5
6938.164	9910	6938.164	7852.5	6938.164	7090	6938.164	13295
6938.165	9547.5	6938.165	7282.5	6938.165	6780	6938.165	12830
6938.166	9117.5	6938.166	6602.5	6938.166	6547.5	6938.166	12345
6938.167	8792.5	6938.167	6072.5	6938.167	6262.5	6938.167	11972.5
6938.168	8447.5	6938.168	5482.5	6938.168	6015	6938.168	11502.5
6938.169	8062.5	6938.169	4947.5	6938.169	5785	6938.169	11125
6938.17	7772.5	6938.17	4482.5	6938.17	5575	6938.17	10715
6938.171	7420	6938.171	4012.5	6938.171	5377.5	6938.171	10365
6938.172	7122.5	6938.172	3517.5	6938.172	5127.5	6938.172	9985
6938.173	6847.5	6938.173	2937.5	6938.173	4957.5	6938.173	9620
6938.174	6510	6938.174	2527.5	6938.174	4692.5	6938.174	9137.5
6938.175	6180	6938.175	1972.5	6938.175	4280	6938.175	8727.5
6938.176	5872.5	6938.176	1517.5	6938.176	4005	6938.176	8325
6938.177	5615	6938.177	972.5	6938.177	3737.5	6938.177	7980
6938.178	5340	6938.178	500	6938.178	3420	6938.178	7632.5
6938.179	5055	6938.179	-22.5	6938.179	3170	6938.179	7237.5
6938.18	4835	6938.18	-397.5	6938.18	2820	6938.18	6775
6938.181	4550	6938.181	-845	6938.181	2555	6938.181	6370
6938.182	4355	6938.182	-1317.5	6938.182	2342.5	6938.182	5985
6938.183	4085	6938.183	-1770	6938.183	2227.5	6938.183	5595
6938.184	3850	6938.184	-2225	6938.184	1975	6938.184	5195
6938.185	3670	6938.185	-2577.5	6938.185	1875	6938.185	4810
6938.186	3447.5	6938.186	-3005	6938.186	1860	6938.186	4445
6938.187	3277.5	6938.187	-3490	6938.187	1747.5	6938.187	4132.5
6938.188	3077.5	6938.188	-3907.5	6938.188	1705	6938.188	3697.5
6938.189	2867.5	6938.189	-4275	6938.189	1615	6938.189	3215
6938.19	2695	6938.19	-4635	6938.19	1577.5	6938.19	2857.5
6938.191	2485	6938.191	-5117.5	6938.191	1490	6938.191	2355
6938.192	2290	6938.192	-5482.5	6938.192	1377.5	6938.192	1905
6938.193	2065	6938.193	-5822.5	6938.193	1262.5	6938.193	1450
6938.194	1842.5	6938.194	-6337.5	6938.194	1162.5	6938.194	1057.5
6938.195	1685	6938.195	-6772.5	6938.195	965	6938.195	530
6938.196	1435	6938.196	-7267.5	6938.196	772.5	6938.196	77.5
6938.197	1195	6938.197	-7660	6938.197	552.5	6938.197	-390
6938.198	990	6938.198	-8142.5	6938.198	247.5	6938.198	-870
6938.199	762.5	6938.199	-8557.5	6938.199	55	6938.199	-1322.5
6938.2	565	6938.2	-8950	6938.2	-192.5	6938.2	-1755
6938.201	352.5	6938.201	-9342.5	6938.201	-447.5	6938.201	-2122.5
6938.202	135	6938.202	-9635	6938.202	-555	6938.202	-2490
6938.203	-75	6938.203	-10070	6938.203	-735	6938.203	-2857.5
6938.204	-255	6938.204	-10457.5	6938.204	-862.5	6938.204	-3212.5
6938.205	-445	6938.205	-10747.5	6938.205	-965	6938.205	-3522.5
6938.206	-655	6938.206	-11185	6938.206	-965	6938.206	-3792.5
6938.207	-802.5	6938.207	-11537.5	6938.207	-997.5	6938.207	-4075
6938.208	-1062.5	6938.208	-11915	6938.208	-1017.5	6938.208	-4352.5
6938.209	-1197.5	6938.209	-12395	6938.209	-1095	6938.209	-4532.5
6938.21	-1397.5	6938.21	-12682.5	6938.21	-1125	6938.21	-4802.5
6938.211	-1587.5	6938.211	-13007.5	6938.211	-1230	6938.211	-5060
6938.212	-1747.5	6938.212	-13375	6938.212	-1337.5	6938.212	-5290
6938.213	-1932.5	6938.213	-13705	6938.213	-1447.5	6938.213	-5497.5
6938.214	-2162.5	6938.214	-14077.5	6938.214	-1525	6938.214	-5805
6938.215	-2360	6938.215	-14457.5	6938.215	-1747.5	6938.215	-6090
6938.216	-2562.5	6938.216	-14662.5	6938.216	-1935	6938.216	-6407.5
6938.217	-2722.5	6938.217	-15052.5	6938.217	-2110	6938.217	-6630
6938.218	-2925	6938.218	-15410	6938.218	-2347.5	6938.218	-6850
6938.219	-3122.5	6938.219	-15645	6938.219	-2557.5	6938.219	-7102.5
6938.22	-3267.5	6938.22	-15965	6938.22	-2792.5	6938.22	-7315
6938.221	-3435	6938.221	-16297.5	6938.221	-2962.5	6938.221	-7562.5
6938.222	-3560	6938.222	-16490	6938.222	-3090	6938.222	-7742.5
6938.223	-3725	6938.223	-16710	6938.223	-3255	6938.223	-7925
6938.224	-3857.5	6938.224	-16972.5	6938.224	-3327.5	6938.224	-8097.5
6938.225	-3975	6938.225	-17117.5	6938.225	-3282.5	6938.225	-8212.5
6938.226	-4085	6938.226	-17370	6938.226	-3387.5	6938.226	-8325
6938.227	-4162.5	6938.227	-17622.5	6938.227	-3332.5	6938.227	-8380
6938.228	-4280	6938.228	-17850	6938.228	-3320	6938.228	-8455
6938.229	-4405	6938.229	-18122.5	6938.229	-3317.5	6938.229	-8577.5
6938.23	-4457.5	6938.23	-18217.5	6938.23	-3325	6938.23	-8655
6938.231	-4570	6938.231	-18355	6938.231	-3322.5	6938.231	-8722.5
6938.232	-4637.5	6938.232	-18485	6938.232	-3290	6938.232	-8807.5
6938.233	-4725	6938.233	-18572.5	6938.233	-3337.5	6938.233	-8827.5
6938.234	-4802.5	6938.234	-18787.5	6938.234	-3395	6938.234	-8897.5
6938.235	-4920	6938.235	-18870	6938.235	-3602.5	6938.235	-9020
6938.236	-4962.5	6938.236	-19055	6938.236	-3702.5	6938.236	-9215
6938.237	-5070	6938.237	-19310	6938.237	-3847.5	6938.237	-9292.5
6938.238	-5147.5	6938.238	-19420	6938.238	-3962.5	6938.238	-9395
6938.239	-5240	6938.239	-19617.5	6938.239	-4120	6938.239	-9457.5
6938.24	-5280	6938.24	-19595	6938.24	-4275	6938.24	-9572.5
6938.241	-5337.5	6938.241	-19687.5	6938.241	-4375	6938.241	-9630
6938.242	-5375	6938.242	-19760	6938.242	-4422.5	6938.242	-9665
6938.243	-5422.5	6938.243	-19912.5	6938.243	-4492.5	6938.243	-9690
6938.244	-5440	6938.244	-20042.5	6938.244	-4525	6938.244	-9685
6938.245	-5462.5	6938.245	-20155	6938.245	-4522.5	6938.245	-9667.5
6938.246	-5445	6938.246	-20195	6938.246	-4452.5	6938.246	-9627.5
6938.247	-5455	6938.247	-20197.5	6938.247	-4397.5	6938.247	-9592.5
6938.248	-5455	6938.248	-20237.5	6938.248	-4335	6938.248	-9557.5
6938.249	-5500	6938.249	-20412.5	6938.249	-4257.5	6938.249	-9460
6938.25	-5505	6938.25	-20377.5	6938.25	-4175	6938.25	-9402.5
6938.251	-5477.5	6938.251	-20402.5	6938.251	-4180	6938.251	-9360
6938.252	-5505	6938.252	-20405	6938.252	-4162.5	6938.252	-9335
6938.253	-5535	6938.253	-20497.5	6938.253	-4152.5	6938.253	-9315
6938.254	-5520	6938.254	-20535	6938.254	-4172.5	6938.254	-9302.5
6938.255	-5517.5	6938.255	-20580	6938.255	-4272.5	6938.255	-9287.5
6938.256	-5527.5	6938.256	-20690	6938.256	-4320	6938.256	-9322.5
6938.257	-5525	6938.257	-20715	6938.257	-4317.5	6938.257	-9292.5
6938.258	-5525	6938.258	-20800	6938.258	-4487.5	6938.258	-9332.5
6938.259	-5570	6938.259	-20900	6938.259	-4575	6938.259	-9372.5
6938.26	-5537.5	6938.26	-20892.5	6938.26	-4675	6938.26	-9397.5
6938.261	-5505	6938.261	-20930	6938.261	-4762.5	6938.261	-9400
6938.262	-5527.5	6938.262	-20917.5	6938.262	-4787.5	6938.262	-9357.5
6938.263	-5475	6938.263	-20865	6938.263	-4760	6938.263	-9320
6938.264	-5455	6938.264	-20985	6938.264	-4730	6938.264	-9257.5
6938.265	-5442.5	6938.265	-20937.5	6938.265	-4712.5	6938.265	-9152.5
6938.266	-5397.5	6938.266	-20940	6938.266	-4692.5	6938.266	-9105
6938.267	-5395	6938.267	-20952.5	6938.267	-4535	6938.267	-9010
6938.268	-5337.5	6938.268	-20810	6938.268	-4417.5	6938.268	-8887.5
6938.269	-5305	6938.269	-20747.5	6938.269	-4380	6938.269	-8785
6938.27	-5255	6938.27	-20715	6938.27	-4255	6938.27	-8705
6938.271	-5270	6938.271	-20715	6938.271	-4172.5	6938.271	-8587.5
6938.272	-5217.5	6938.272	-20717.5	6938.272	-4165	6938.272	-8532.5
6938.273	-5210	6938.273	-20685	6938.273	-4105	6938.273	-8522.5
6938.274	-5147.5	6938.274	-20727.5	6938.274	-4112.5	6938.274	-8485
6938.275	-5132.5	6938.275	-20755	6938.275	-4137.5	6938.275	-8437.5
6938.276	-5105	6938.276	-20765	6938.276	-4227.5	6938.276	-8437.5
6938.277	-5152.5	6938.277	-20795	6938.277	-4292.5	6938.277	-8462.5
6938.278	-5107.5	6938.278	-20807.5	6938.278	-4395	6938.278	-8447.5
6938.279	-5110	6938.279	-20775	6938.279	-4485	6938.279	-8392.5
6938.28	-5047.5	6938.28	-20800	6938.28	-4572.5	6938.28	-8417.5
6938.281	-5025	6938.281	-20682.5	6938.281	-4527.5	6938.281	-8312.5
6938.282	-4982.5	6938.282	-20662.5	6938.282	-4550	6938.282	-8312.5
6938.283	-4967.5	6938.283	-20647.5	6938.283	-4520	6938.283	-8230
6938.284	-4917.5	6938.284	-20575	6938.284	-4482.5	6938.284	-8152.5
6938.285	-4872.5	6938.285	-20527.5	6938.285	-4442.5	6938.285	-8095
6938.286	-4832.5	6938.286	-20505	6938.286	-4322.5	6938.286	-7947.5
6938.287	-4777.5	6938.287	-20465	6938.287	-4247.5	6938.287	-7827.5
6938.288	-4725	6938.288	-20397.5	6938.288	-4052.5	6938.288	-7765
6938.289	-4665	6938.289	-20382.5	6938.289	-3985	6938.289	-7642.5
6938.29	-4650	6938.29	-20285	6938.29	-3862.5	6938.29	-7490
6938.291	-4655	6938.291	-20302.5	6938.291	-3780	6938.291	-7402.5
6938.292	-4567.5	6938.292	-20257.5	6938.292	-3780	6938.292	-7300
6938.293	-4552.5	6938.293	-20212.5	6938.293	-3695	6938.293	-7247.5
6938.294	-4527.5	6938.294	-20127.5	6938.294	-3595	6938.294	-7182.5
6938.295	-4502.5	6938.295	-20255	6938.295	-3717.5	6938.295	-7160
6938.296	-4487.5	6938.296	-20192.5	6938.296	-3747.5	6938.296	-7150
6938.297	-4460	6938.297	-20160	6938.297	-3747.5	6938.297	-7092.5
6938.298	-4460	6938.298	-20262.5	6938.298	-3797.5	6938.298	-7037.5
6938.299	-4440	6938.299	-20155	6938.299	-4012.5	6938.299	-7035
6938.3	-4427.5	6938.3	-20087.5	6938.3	-3950	6938.3	-7032.5
6938.301	-4410	6938.301	-20045	6938.301	-4105	6938.301	-6962.5
6938.302	-4340	6938.302	-20025	6938.302	-4077.5	6938.302	-6852.5
6938.303	-4327.5	6938.303	-20042.5	6938.303	-4082.5	6938.303	-6815
6938.304	-4257.5	6938.304	-19917.5	6938.304	-4087.5	6938.304	-6687.5
6938.305	-4232.5	6938.305	-19895	6938.305	-3995	6938.305	-6597.5
6938.306	-4227.5	6938.306	-19885	6938.306	-3955	6938.306	-6447.5
6938.307	-4152.5	6938.307	-19770	6938.307	-3787.5	6938.307	-6322.5
6938.308	-4095	6938.308	-19865	6938.308	-3617.5	6938.308	-6225
6938.309	-4050	6938.309	-19770	6938.309	-3472.5	6938.309	-6117.5
6938.31	-4017.5	6938.31	-19787.5	6938.31	-3432.5	6938.31	-6030
6938.311	-3980	6938.311	-19682.5	6938.311	-3312.5	6938.311	-5887.5
6938.312	-3942.5	6938.312	-19635	6938.312	-3265	6938.312	-5757.5
6938.313	-3917.5	6938.313	-19657.5	6938.313	-3197.5	6938.313	-5647.5
6938.314	-3887.5	6938.314	-19562.5	6938.314	-3177.5	6938.314	-5642.5
6938.315	-3882.5	6938.315	-19575	6938.315	-3187.5	6938.315	-5542.5
6938.316	-3867.5	6938.316	-19510	6938.316	-3257.5	6938.316	-5525
6938.317	-3847.5	6938.317	-19517.5	6938.317	-3292.5	6938.317	-5580
6938.318	-3835	6938.318	-19592.5	6938.318	-3405	6938.318	-5527.5
6938.319	-3827.5	6938.319	-19562.5	6938.319	-3505	6938.319	-5457.5
6938.32	-3810	6938.32	-19517.5	6938.32	-3592.5	6938.32	-5547.5
6938.321	-3810	6938.321	-19495	6938.321	-3602.5	6938.321	-5497.5
6938.322	-3757.5	6938.322	-19527.5	6938.322	-3620	6938.322	-5360
6938.323	-3682.5	6938.323	-19345	6938.323	-3647.5	6938.323	-5372.5
6938.324	-3687.5	6938.324	-19202.5	6938.324	-3632.5	6938.324	-5302.5
6938.325	-3630	6938.325	-19262.5	6938.325	-3512.5	6938.325	-5252.5
6938.326	-3577.5	6938.326	-19185	6938.326	-3455	6938.326	-5140
6938.327	-3527.5	6938.327	-19187.5	6938.327	-3342.5	6938.327	-5117.5
6938.328	-3462.5	6938.328	-19052.5	6938.328	-3195	6938.328	-4992.5
6938.329	-3405	6938.329	-19102.5	6938.329	-3100	6938.329	-4897.5
6938.33	-3380	6938.33	-18952.5	6938.33	-2947.5	6938.33	-4797.5
6938.331	-3315	6938.331	-18972.5	6938.331	-2847.5	6938.331	-4682.5
6938.332	-3277.5	6938.332	-18810	6938.332	-2807.5	6938.332	-4617.5
6938.333	-3247.5	6938.333	-18785	6938.333	-2700	6938.333	-4597.5
6938.334	-3242.5	6938.334	-18770	6938.334	-2735	6938.334	-4490
6938.335	-3232.5	6938.335	-18625	6938.335	-2802.5	6938.335	-4492.5
6938.336	-3177.5	6938.336	-18697.5	6938.336	-2887.5	6938.336	-4435
6938.337	-3117.5	6938.337	-18755	6938.337	-2920	6938.337	-4400
6938.338	-3145	6938.338	-18712.5	6938.338	-3040	6938.338	-4385
6938.339	-3107.5	6938.339	-18730	6938.339	-3080	6938.339	-4330
6938.34	-3102.5	6938.34	-18607.5	6938.34	-3190	6938.34	-4342.5
6938.341	-3065	6938.341	-18625	6938.341	-3217.5	6938.341	-4245
6938.342	-3020	6938.342	-18585	6938.342	-3230	6938.342	-4180
6938.343	-2985	6938.343	-18525	6938.343	-3257.5	6938.343	-4150
6938.344	-2935	6938.344	-18457.5	6938.344	-3225	6938.344	-4072.5
6938.345	-2862.5	6938.345	-18485	6938.345	-3082.5	6938.345	-3877.5
6938.346	-2865	6938.346	-18435	6938.346	-2995	6938.346	-3780
6938.347	-2765	6938.347	-18390	6938.347	-2892.5	6938.347	-3657.5
6938.348	-2705	6938.348	-18300	6938.348	-2687.5	6938.348	-3505
6938.349	-2655	6938.349	-18235	6938.349	-2630	6938.349	-3437.5
6938.35	-2612.5	6938.35	-18177.5	6938.35	-2482.5	6938.35	-3322.5
6938.351	-2587.5	6938.351	-18022.5	6938.351	-2397.5	6938.351	-3187.5
6938.352	-2560	6938.352	-17905	6938.352	-2322.5	6938.352	-3110
6938.353	-2510	6938.353	-17872.5	6938.353	-2255	6938.353	-2977.5
6938.354	-2472.5	6938.354	-17862.5	6938.354	-2285	6938.354	-2827.5
6938.355	-2445	6938.355	-17757.5	6938.355	-2282.5	6938.355	-2815
6938.356	-2457.5	6938.356	-17730	6938.356	-2307.5	6938.356	-2787.5
6938.357	-2417.5	6938.357	-17740	6938.357	-2380	6938.357	-2650
6938.358	-2387.5	6938.358	-17730	6938.358	-2457.5	6938.358	-2687.5
6938.359	-2352.5	6938.359	-17657.5	6938.359	-2490	6938.359	-2587.5
6938.36	-2387.5	6938.36	-17625	6938.36	-2602.5	6938.36	-2502.5
6938.361	-2367.5	6938.361	-17610	6938.361	-2625	6938.361	-2442.5
6938.362	-2322.5	6938.362	-17500	6938.362	-2580	6938.362	-2345
6938.363	-2327.5	6938.363	-17480	6938.363	-2557.5	6938.363	-2225
6938.364	-2315	6938.364	-17445	6938.364	-2527.5	6938.364	-2160
6938.365	-2242.5	6938.365	-17262.5	6938.365	-2360	6938.365	-1975
6938.366	-2222.5	6938.366	-17245	6938.366	-2280	6938.366	-1852.5
6938.367	-2162.5	6938.367	-17265	6938.367	-2172.5	6938.367	-1675
6938.368	-2140	6938.368	-17172.5	6938.368	-1950	6938.368	-1530
6938.369	-2102.5	6938.369	-17082.5	6938.369	-1820	6938.369	-1362.5
6938.37	-2080	6938.37	-17020	6938.37	-1697.5	6938.37	-1262.5
6938.371	-2092.5	6938.371	-16895	6938.371	-1575	6938.371	-1107.5
6938.372	-2060	6938.372	-16862.5	6938.372	-1527.5	6938.372	-995
6938.373	-2045	6938.373	-16642.5	6938.373	-1400	6938.373	-892.5
6938.374	-2027.5	6938.374	-16667.5	6938.374	-1362.5	6938.374	-785
6938.375	-2012.5	6938.375	-16725	6938.375	-1357.5	6938.375	-787.5
6938.376	-1997.5	6938.376	-16702.5	6938.376	-1385	6938.376	-685
6938.377	-1990	6938.377	-16752.5	6938.377	-1355	6938.377	-635
6938.378	-2020	6938.378	-16715	6938.378	-1387.5	6938.378	-582.5
6938.379	-1990	6938.379	-16695	6938.379	-1392.5	6938.379	-567.5
6938.38	-2005	6938.38	-16580	6938.38	-1487.5	6938.38	-530
6938.381	-1990	6938.381	-16507.5	6938.381	-1445	6938.381	-510
6938.382	-1937.5	6938.382	-16405	6938.382	-1437.5	6938.382	-377.5
6938.383	-1927.5	6938.383	-16347.5	6938.383	-1397.5	6938.383	-435
6938.384	-1900	6938.384	-16322.5	6938.384	-1342.5	6938.384	-337.5
6938.385	-1902.5	6938.385	-16185	6938.385	-1217.5	6938.385	-222.5
6938.386	-1860	6938.386	-16205	6938.386	-1117.5	6938.386	-92.5
6938.387	-1790	6938.387	-16197.5	6938.387	-942.5	6938.387	-22.5
6938.388	-1792.5	6938.388	-16165	6938.388	-740	6938.388	125
6938.389	-1757.5	6938.389	-16135	6938.389	-597.5	6938.389	205
6938.39	-1745	6938.39	-16130	6938.39	-447.5	6938.39	272.5
6938.391	-1707.5	6938.391	-15992.5	6938.391	-292.5	6938.391	382.5
6938.392	-1672.5	6938.392	-15912.5	6938.392	-162.5	6938.392	447.5
6938.393	-1662.5	6938.393	-15832.5	6938.393	-80	6938.393	507.5
6938.394	-1695	6938.394	-15862.5	6938.394	-17.5	6938.394	495
6938.395	-1662.5	6938.395	-15767.5	6938.395	-12.5	6938.395	470
6938.396	-1687.5	6938.396	-15762.5	6938.396	-97.5	6938.396	475
6938.397	-1660	6938.397	-15832.5	6938.397	-97.5	6938.397	485
6938.398	-1657.5	6938.398	-15700	6938.398	-145	6938.398	467.5
6938.399	-1647.5	6938.399	-15735	6938.399	-150	6938.399	430
6938.4	-1612.5	6938.4	-15622.5	6938.4	-150	6938.4	375
6938.401	-1652.5	6938.401	-15597.5	6938.401	-160	6938.401	402.5
6938.402	-1587.5	6938.402	-15460	6938.402	-130	6938.402	422.5
6938.403	-1597.5	6938.403	-15440	6938.403	-80	6938.403	392.5
6938.404	-1557.5	6938.404	-15387.5	6938.404	15	6938.404	377.5
6938.405	-1532.5	6938.405	-15342.5	6938.405	157.5	6938.405	462.5
6938.406	-1497.5	6938.406	-15257.5	6938.406	315	6938.406	482.5
6938.407	-1487.5	6938.407	-15255	6938.407	507.5	6938.407	605
6938.408	-1417.5	6938.408	-15215	6938.408	707.5	6938.408	617.5
6938.409	-1430	6938.409	-15085	6938.409	815	6938.409	620
6938.41	-1367.5	6938.41	-15102.5	6938.41	1000	6938.41	640
6938.411	-1362.5	6938.411	-15052.5	6938.411	1125	6938.411	657.5
6938.412	-1330	6938.412	-14972.5	6938.412	1265	6938.412	657.5
6938.413	-1332.5	6938.413	-14887.5	6938.413	1372.5	6938.413	670
6938.414	-1312.5	6938.414	-14857.5	6938.414	1390	6938.414	660
6938.415	-1330	6938.415	-14797.5	6938.415	1407.5	6938.415	572.5
6938.416	-1310	6938.416	-14895	6938.416	1417.5	6938.416	555
6938.417	-1355	6938.417	-14967.5	6938.417	1420	6938.417	440
6938.418	-1372.5	6938.418	-14830	6938.418	1397.5	6938.418	350
6938.419	-1355	6938.419	-14792.5	6938.419	1352.5	6938.419	300
6938.42	-1342.5	6938.42	-14757.5	6938.42	1302.5	6938.42	250
6938.421	-1342.5	6938.421	-14617.5	6938.421	1282.5	6938.421	150
6938.422	-1337.5	6938.422	-14622.5	6938.422	1287.5	6938.422	165
6938.423	-1295	6938.423	-14610	6938.423	1385	6938.423	152.5
6938.424	-1292.5	6938.424	-14560	6938.424	1440	6938.424	102.5
6938.425	-1265	6938.425	-14380	6938.425	1540	6938.425	150
6938.426	-1285	6938.426	-14207.5	6938.426	1662.5	6938.426	170
6938.427	-1210	6938.427	-14222.5	6938.427	1745	6938.427	95
6938.428	-1212.5	6938.428	-14167.5	6938.428	1900	6938.428	165
6938.429	-1215	6938.429	-14192.5	6938.429	1965	6938.429	102.5
6938.43	-1147.5	6938.43	-14015	6938.43	2210	6938.43	117.5
6938.431	-1147.5	6938.431	-13947.5	6938.431	2285	6938.431	185
6938.432	-1132.5	6938.432	-13900	6938.432	2387.5	6938.432	182.5
6938.433	-1145	6938.433	-13877.5	6938.433	2492.5	6938.433	150
6938.434	-1107.5	6938.434	-13840	6938.434	2510	6938.434	125
6938.435	-1125	6938.435	-13855	6938.435	2440	6938.435	12.5
6938.436	-1102.5	6938.436	-13785	6938.436	2407.5	6938.436	-67.5
6938.437	-1142.5	6938.437	-13675	6938.437	2400	6938.437	-97.5
6938.438	-1135	6938.438	-13722.5	6938.438	2277.5	6938.438	-152.5
6938.439	-1115	6938.439	-13662.5	6938.439	2235	6938.439	-225
6938.44	-1147.5	6938.44	-13805	6938.44	2135	6938.44	-270
6938.441	-1125	6938.441	-13640	6938.441	2110	6938.441	-372.5
6938.442	-1120	6938.442	-13607.5	6938.442	2135	6938.442	-370
6938.443	-1112.5	6938.443	-13537.5	6938.443	2182.5	6938.443	-400
6938.444	-1090	6938.444	-13532.5	6938.444	2170	6938.444	-437.5
6938.445	-1107.5	6938.445	-13407.5	6938.445	2297.5	6938.445	-420
6938.446	-1057.5	6938.446	-13440	6938.446	2337.5	6938.446	-407.5
6938.447	-1010	6938.447	-13362.5	6938.447	2442.5	6938.447	-395
6938.448	-1032.5	6938.448	-13310	6938.448	2627.5	6938.448	-305
6938.449	-1002.5	6938.449	-13240	6938.449	2732.5	6938.449	-300
6938.45	-962.5	6938.45	-13235	6938.45	2865	6938.45	-260
6938.451	-962.5	6938.451	-13127.5	6938.451	2985	6938.451	-280
6938.452	-945	6938.452	-13150	6938.452	3000	6938.452	-272.5
6938.453	-962.5	6938.453	-13065	6938.453	3065	6938.453	-282.5
6938.454	-930	6938.454	-13065	6938.454	3087.5	6938.454	-345
6938.455	-942.5	6938.455	-13160	6938.455	3052.5	6938.455	-390
6938.456	-937.5	6938.456	-13185	6938.456	3047.5	6938.456	-460
6938.457	-950	6938.457	-13185	6938.457	2962.5	6938.457	-542.5
6938.458	-945	6938.458	-13157.5	6938.458	2915	6938.458	-610
6938.459	-947.5	6938.459	-13062.5	6938.459	2887.5	6938.459	-745
6938.46	-942.5	6938.46	-12957.5	6938.46	2785	6938.46	-707.5
6938.461	-945	6938.461	-12980	6938.461	2647.5	6938.461	-785
6938.462	-915	6938.462	-12885	6938.462	2697.5	6938.462	-797.5
6938.463	-952.5	6938.463	-13010	6938.463	2702.5	6938.463	-842.5
6938.464	-935	6938.464	-12917.5	6938.464	2700	6938.464	-880
6938.465	-877.5	6938.465	-12820	6938.465	2740	6938.465	-840
6938.466	-837.5	6938.466	-12847.5	6938.466	2862.5	6938.466	-825
6938.467	-835	6938.467	-12770	6938.467	2880	6938.467	-802.5
6938.468	-817.5	6938.468	-12795	6938.468	3040	6938.468	-702.5
6938.469	-822.5	6938.469	-12707.5	6938.469	3140	6938.469	-675
6938.47	-800	6938.47	-12685	6938.47	3230	6938.47	-672.5
6938.471	-790	6938.471	-12707.5	6938.471	3325	6938.471	-685
6938.472	-747.5	6938.472	-12675	6938.472	3317.5	6938.472	-627.5
6938.473	-752.5	6938.473	-12675	6938.473	3375	6938.473	-677.5
6938.474	-795	6938.474	-12605	6938.474	3345	6938.474	-685
6938.475	-732.5	6938.475	-12562.5	6938.475	3377.5	6938.475	-782.5
6938.476	-782.5	6938.476	-12610	6938.476	3260	6938.476	-825
6938.477	-795	6938.477	-12655	6938.477	3197.5	6938.477	-850
6938.478	-810	6938.478	-12675	6938.478	3085	6938.478	-975
6938.479	-815	6938.479	-12690	6938.479	2985	6938.479	-1032.5
6938.48	-822.5	6938.48	-12637.5	6938.48	2890	6938.48	-1132.5
6938.481	-822.5	6938.481	-12577.5	6938.481	2872.5	6938.481	-1180
6938.482	-800	6938.482	-12520	6938.482	2887.5	6938.482	-1177.5
6938.483	-772.5	6938.483	-12442.5	6938.483	2827.5	6938.483	-1240
6938.484	-757.5	6938.484	-12390	6938.484	2782.5	6938.484	-1267.5
6938.485	-722.5	6938.485	-12360	6938.485	2985	6938.485	-1205
6938.486	-697.5	6938.486	-12307.5	6938.486	2985	6938.486	-1172.5
6938.487	-692.5	6938.487	-12445	6938.487	3107.5	6938.487	-1157.5
6938.488	-647.5	6938.488	-12380	6938.488	3225	6938.488	-1077.5
6938.489	-617.5	6938.489	-12397.5	6938.489	3275	6938.489	-1085
6938.49	-625	6938.49	-12307.5	6938.49	3317.5	6938.49	-1027.5
6938.491	-587.5	6938.491	-12210	6938.491	3415	6938.491	-1010
6938.492	-607.5	6938.492	-12137.5	6938.492	3422.5	6938.492	-1057.5
6938.493	-602.5	6938.493	-12042.5	6938.493	3582.5	6938.493	-1035
6938.494	-577.5	6938.494	-12085	6938.494	3565	6938.494	-1055
6938.495	-610	6938.495	-12050	6938.495	3442.5	6938.495	-1162.5
6938.496	-580	6938.496	-12005	6938.496	3422.5	6938.496	-1135
6938.497	-625	6938.497	-11972.5	6938.497	3317.5	6938.497	-1227.5
6938.498	-622.5	6938.498	-12015	6938.498	3227.5	6938.498	-1320
6938.499	-630	6938.499	-12017.5	6938.499	3105	6938.499	-1310
6938.5	-620	6938.5	-11940	6938.5	3055	6938.5	-1360
6938.501	-607.5	6938.501	-11892.5	6938.501	2947.5	6938.501	-1402.5
6938.502	-617.5	6938.502	-11865	6938.502	2972.5	6938.502	-1430
6938.503	-610	6938.503	-11787.5	6938.503	2922.5	6938.503	-1470
6938.504	-550	6938.504	-11832.5	6938.504	2940	6938.504	-1422.5
6938.505	-565	6938.505	-11655	6938.505	3030	6938.505	-1365
6938.506	-555	6938.506	-11657.5	6938.506	3145	6938.506	-1365
6938.507	-540	6938.507	-11602.5	6938.507	3237.5	6938.507	-1310
6938.508	-510	6938.508	-11542.5	6938.508	3370	6938.508	-1277.5
6938.509	-450	6938.509	-11462.5	6938.509	3387.5	6938.509	-1247.5
6938.51	-440	6938.51	-11362.5	6938.51	3555	6938.51	-1202.5
6938.511	-440	6938.511	-11327.5	6938.511	3555	6938.511	-1177.5
6938.512	-455	6938.512	-11292.5	6938.512	3660	6938.512	-1140
6938.513	-407.5	6938.513	-11160	6938.513	3645	6938.513	-1072.5
6938.514	-425	6938.514	-11102.5	6938.514	3717.5	6938.514	-1112.5
6938.515	-422.5	6938.515	-11145	6938.515	3660	6938.515	-1182.5
6938.516	-420	6938.516	-11165	6938.516	3587.5	6938.516	-1217.5
6938.517	-405	6938.517	-11077.5	6938.517	3572.5	6938.517	-1222.5
6938.518	-450	6938.518	-11122.5	6938.518	3392.5	6938.518	-1230
6938.519	-435	6938.519	-11050	6938.519	3337.5	6938.519	-1295
6938.52	-460	6938.52	-11065	6938.52	3250	6938.52	-1350
6938.521	-442.5	6938.521	-10962.5	6938.521	3132.5	6938.521	-1417.5
6938.522	-425	6938.522	-10867.5	6938.522	3220	6938.522	-1360
6938.523	-432.5	6938.523	-10825	6938.523	3082.5	6938.523	-1392.5
6938.524	-402.5	6938.524	-10762.5	6938.524	3105	6938.524	-1410
6938.525	-435	6938.525	-10720	6938.525	3140	6938.525	-1415
6938.526	-385	6938.526	-10677.5	6938.526	3277.5	6938.526	-1330
6938.527	-347.5	6938.527	-10550	6938.527	3325	6938.527	-1230
6938.528	-350	6938.528	-10567.5	6938.528	3482.5	6938.528	-1192.5
6938.529	-332.5	6938.529	-10525	6938.529	3615	6938.529	-1082.5
6938.53	-317.5	6938.53	-10420	6938.53	3642.5	6938.53	-1072.5
6938.531	-280	6938.531	-10320	6938.531	3732.5	6938.531	-1045
6938.532	-295	6938.532	-10287.5	6938.532	3777.5	6938.532	-1010
6938.533	-312.5	6938.533	-10265	6938.533	3820	6938.533	-985
6938.534	-307.5	6938.534	-10187.5	6938.534	3787.5	6938.534	-997.5
6938.535	-272.5	6938.535	-10160	6938.535	3730	6938.535	-1010
6938.536	-292.5	6938.536	-10102.5	6938.536	3687.5	6938.536	-1045
6938.537	-292.5	6938.537	-10070	6938.537	3632.5	6938.537	-1060
6938.538	-270	6938.538	-9955	6938.538	3467.5	6938.538	-1087.5
6938.539	-310	6938.539	-9947.5	6938.539	3395	6938.539	-1165
6938.54	-307.5	6938.54	-9852.5	6938.54	3377.5	6938.54	-1217.5
6938.541	-297.5	6938.541	-9855	6938.541	3240	6938.541	-1185
6938.542	-317.5	6938.542	-9790	6938.542	3220	6938.542	-1230
6938.543	-252.5	6938.543	-9655	6938.543	3185	6938.543	-1170
6938.544	-252.5	6938.544	-9655	6938.544	3170	6938.544	-1192.5
6938.545	-275	6938.545	-9492.5	6938.545	3252.5	6938.545	-1117.5
6938.546	-265	6938.546	-9405	6938.546	3347.5	6938.546	-1045
6938.547	-202.5	6938.547	-9270	6938.547	3437.5	6938.547	-982.5
6938.548	-185	6938.548	-9132.5	6938.548	3572.5	6938.548	-945
6938.549	-145	6938.549	-9090	6938.549	3625	6938.549	-887.5
6938.55	-142.5	6938.55	-8982.5	6938.55	3692.5	6938.55	-887.5
6938.551	-115	6938.551	-8907.5	6938.551	3880	6938.551	-825
6938.552	-147.5	6938.552	-8832.5	6938.552	3877.5	6938.552	-782.5
6938.553	-137.5	6938.553	-8707.5	6938.553	3855	6938.553	-727.5
6938.554	-105	6938.554	-8650	6938.554	3922.5	6938.554	-797.5
6938.555	-130	6938.555	-8645	6938.555	3825	6938.555	-712.5
6938.556	-115	6938.556	-8570	6938.556	3767.5	6938.556	-757.5
6938.557	-90	6938.557	-8500	6938.557	3712.5	6938.557	-800
6938.558	-85	6938.558	-8407.5	6938.558	3605	6938.558	-905
6938.559	-130	6938.559	-8337.5	6938.559	3527.5	6938.559	-907.5
6938.56	-107.5	6938.56	-8267.5	6938.56	3412.5	6938.56	-977.5
6938.561	-127.5	6938.561	-8202.5	6938.561	3297.5	6938.561	-1017.5
6938.562	-127.5	6938.562	-8120	6938.562	3265	6938.562	-1005
6938.563	-102.5	6938.563	-8005	6938.563	3232.5	6938.563	-937.5
6938.564	-65	6938.564	-7912.5	6938.564	3257.5	6938.564	-955
6938.565	-65	6938.565	-7915	6938.565	3315	6938.565	-872.5
6938.566	-32.5	6938.566	-7850	6938.566	3437.5	6938.566	-842.5
6938.567	-12.5	6938.567	-7727.5	6938.567	3472.5	6938.567	-785
6938.568	10	6938.568	-7600	6938.568	3675	6938.568	-700
6938.569	15	6938.569	-7520	6938.569	3742.5	6938.569	-655
6938.57	32.5	6938.57	-7400	6938.57	3795	6938.57	-602.5
6938.571	72.5	6938.571	-7272.5	6938.571	3862.5	6938.571	-600
6938.572	60	6938.572	-7100	6938.572	3957.5	6938.572	-552.5
6938.573	47.5	6938.573	-7077.5	6938.573	4020	6938.573	-515
6938.574	55	6938.574	-6952.5	6938.574	3952.5	6938.574	-552.5
6938.575	52.5	6938.575	-7025	6938.575	3922.5	6938.575	-577.5
6938.576	55	6938.576	-6855	6938.576	3875	6938.576	-537.5
6938.577	12.5	6938.577	-6815	6938.577	3797.5	6938.577	-560
6938.578	10	6938.578	-6715	6938.578	3640	6938.578	-677.5
6938.579	15	6938.579	-6442.5	6938.579	3525	6938.579	-657.5
6938.58	7.5	6938.58	-6252.5	6938.58	3540	6938.58	-715
6938.581	-17.5	6938.581	-6290	6938.581	3342.5	6938.581	-787.5
6938.582	-12.5	6938.582	-6272.5	6938.582	3350	6938.582	-762.5
6938.583	27.5	6938.583	-6172.5	6938.583	3307.5	6938.583	-752.5
6938.584	-10	6938.584	-6100	6938.584	3260	6938.584	-707.5
6938.585	30	6938.585	-5957.5	6938.585	3350	6938.585	-660
6938.586	95	6938.586	-5915	6938.586	3437.5	6938.586	-617.5
6938.587	92.5	6938.587	-5877.5	6938.587	3512.5	6938.587	-615
6938.588	140	6938.588	-5755	6938.588	3667.5	6938.588	-550
6938.589	150	6938.589	-5682.5	6938.589	3750	6938.589	-487.5
6938.59	140	6938.59	-5572.5	6938.59	3815	6938.59	-497.5
6938.591	150	6938.591	-5495	6938.591	3927.5	6938.591	-412.5
6938.592	165	6938.592	-5405	6938.592	3925	6938.592	-375
6938.593	170	6938.593	-5257.5	6938.593	3987.5	6938.593	-282.5
6938.594	185	6938.594	-5100	6938.594	3932.5	6938.594	-367.5
6938.595	130	6938.595	-5150	6938.595	3877.5	6938.595	-355
6938.596	135	6938.596	-5070	6938.596	3812.5	6938.596	-372.5
6938.597	142.5	6938.597	-4917.5	6938.597	3732.5	6938.597	-410
6938.598	115	6938.598	-4850	6938.598	3570	6938.598	-490
6938.599	155	6938.599	-4780	6938.599	3572.5	6938.599	-522.5
6938.6	107.5	6938.6	-4660	6938.6	3427.5	6938.6	-522.5
6938.601	127.5	6938.601	-4527.5	6938.601	3402.5	6938.601	-635
6938.602	132.5	6938.602	-4402.5	6938.602	3377.5	6938.602	-605
6938.603	142.5	6938.603	-4252.5	6938.603	3272.5	6938.603	-630
6938.604	175	6938.604	-4242.5	6938.604	3237.5	6938.604	-635
6938.605	152.5	6938.605	-4067.5	6938.605	3317.5	6938.605	-595
6938.606	182.5	6938.606	-3892.5	6938.606	3410	6938.606	-477.5
6938.607	222.5	6938.607	-3825	6938.607	3522.5	6938.607	-457.5
6938.608	187.5	6938.608	-3710	6938.608	3597.5	6938.608	-357.5
6938.609	262.5	6938.609	-3665	6938.609	3677.5	6938.609	-337.5
6938.61	237.5	6938.61	-3450	6938.61	3832.5	6938.61	-282.5
6938.611	255	6938.611	-3370	6938.611	3882.5	6938.611	-220
6938.612	202.5	6938.612	-3227.5	6938.612	3822.5	6938.612	-265
6938.613	232.5	6938.613	-3125	6938.613	3875	6938.613	-250
6938.614	210	6938.614	-3135	6938.614	3907.5	6938.614	-167.5
6938.615	240	6938.615	-3035	6938.615	3812.5	6938.615	-302.5
6938.616	175	6938.616	-2955	6938.616	3650	6938.616	-245
6938.617	115	6938.617	-2922.5	6938.617	3540	6938.617	-332.5
6938.618	150	6938.618	-2732.5	6938.618	3495	6938.618	-367.5
6938.619	177.5	6938.619	-2577.5	6938.619	3455	6938.619	-360
6938.62	160	6938.62	-2672.5	6938.62	3342.5	6938.62	-422.5
6938.621	102.5	6938.621	-2670	6938.621	3152.5	6938.621	-457.5
6938.622	77.5	6938.622	-2580	6938.622	3115	6938.622	-500
6938.623	-57.5	6938.623	-2592.5	6938.623	3037.5	6938.623	-605
6938.624	25	6938.624	-2312.5	6938.624	3012.5	6938.624	-467.5
6938.625	237.5	6938.625	-2092.5	6938.625	3227.5	6938.625	-245
6938.626	172.5	6938.626	-2070	6938.626	3267.5	6938.626	-325
6938.627	-72.5	6938.627	-2112.5	6938.627	2987.5	6938.627	-505
6938.628	-222.5	6938.628	-2042.5	6938.628	3017.5	6938.628	-545
6938.629	-735	6938.629	-2377.5	6938.629	2590	6938.629	-1032.5
6938.63	-935	6938.63	-2417.5	6938.63	2450	6938.63	-1200
6938.631	-1010	6938.631	-2412.5	6938.631	2442.5	6938.631	-1272.5
6938.632	-2212.5	6938.632	-3370	6938.632	1467.5	6938.632	-2275
6938.633	-2420	6938.633	-3447.5	6938.633	1297.5	6938.633	-2517.5
6938.634	-2197.5	6938.634	-3172.5	6938.634	1497.5	6938.634	-2312.5
6938.635	-1995	6938.635	-2897.5	6938.635	1575	6938.635	-2252.5
6938.636	-2067.5	6938.636	-2782.5	6938.636	1475	6938.636	-2350
6938.637	-1835	6938.637	-2545	6938.637	1505	6938.637	-2145
6938.638	-1122.5	6938.638	-1720	6938.638	2000	6938.638	-1485
6938.639	-1235	6938.639	-1755	6938.639	1855	6938.639	-1627.5
6938.64	-1837.5	6938.64	-2140	6938.64	1200	6938.64	-2175
6938.641	-2150	6938.641	-2335	6938.641	875	6938.641	-2475
6938.642	-2302.5	6938.642	-2385	6938.642	755	6938.642	-2712.5
6938.643	-2380	6938.643	-2287.5	6938.643	685	6938.643	-2720
6938.644	-2072.5	6938.644	-1900	6938.644	885	6938.644	-2505
6938.645	-2057.5	6938.645	-1830	6938.645	920	6938.645	-2435
6938.646	-2227.5	6938.646	-1852.5	6938.646	762.5	6938.646	-2527.5
6938.647	-2205	6938.647	-1735	6938.647	882.5	6938.647	-2415
6938.648	-1582.5	6938.648	-1112.5	6938.648	1460	6938.648	-1822.5
6938.649	-972.5	6938.649	-415	6938.649	2095	6938.649	-1165
6938.65	-712.5	6938.65	-45	6938.65	2412.5	6938.65	-862.5
6938.651	-850	6938.651	-67.5	6938.651	2372.5	6938.651	-927.5
6938.652	-1017.5	6938.652	-80	6938.652	2245	6938.652	-1100
6938.653	-1100	6938.653	-60	6938.653	2260	6938.653	-1150
6938.654	-1120	6938.654	62.5	6938.654	2212.5	6938.654	-1120
6938.655	-1162.5	6938.655	72.5	6938.655	2137.5	6938.655	-1210
6938.656	-1200	6938.656	165	6938.656	2007.5	6938.656	-1260
6938.657	-1212.5	6938.657	115	6938.657	1967.5	6938.657	-1290
6938.658	-1200	6938.658	277.5	6938.658	1815	6938.658	-1325
6938.659	-1250	6938.659	390	6938.659	1690	6938.659	-1417.5
6938.66	-1247.5	6938.66	495	6938.66	1560	6938.66	-1417.5
6938.661	-1245	6938.661	540	6938.661	1470	6938.661	-1432.5
6938.662	-1225	6938.662	662.5	6938.662	1422.5	6938.662	-1372.5
6938.663	-1222.5	6938.663	660	6938.663	1392.5	6938.663	-1412.5
6938.664	-1177.5	6938.664	802.5	6938.664	1410	6938.664	-1300
6938.665	-1162.5	6938.665	960	6938.665	1565	6938.665	-1272.5
6938.666	-1115	6938.666	1032.5	6938.666	1662.5	6938.666	-1195
6938.667	-1087.5	6938.667	1167.5	6938.667	1662.5	6938.667	-1110
6938.668	-1042.5	6938.668	1217.5	6938.668	1840	6938.668	-1080
6938.669	-1037.5	6938.669	1375	6938.669	1972.5	6938.669	-985
6938.67	-977.5	6938.67	1487.5	6938.67	2052.5	6938.67	-877.5
6938.671	-922.5	6938.671	1667.5	6938.671	2180	6938.671	-777.5
6938.672	-932.5	6938.672	1762.5	6938.672	2200	6938.672	-767.5
6938.673	-887.5	6938.673	1845	6938.673	2255	6938.673	-730
6938.674	-872.5	6938.674	1955	6938.674	2275	6938.674	-685
6938.675	-860	6938.675	2047.5	6938.675	2235	6938.675	-705
6938.676	-852.5	6938.676	2080	6938.676	2210	6938.676	-672.5
6938.677	-825	6938.677	2135	6938.677	2140	6938.677	-662.5
6938.678	-807.5	6938.678	2212.5	6938.678	2030	6938.678	-737.5
6938.679	-787.5	6938.679	2290	6938.679	1960	6938.679	-722.5
6938.68	-795	6938.68	2422.5	6938.68	1900	6938.68	-767.5
6938.681	-790	6938.681	2475	6938.681	1817.5	6938.681	-782.5
6938.682	-760	6938.682	2540	6938.682	1767.5	6938.682	-682.5
6938.683	-747.5	6938.683	2617.5	6938.683	1767.5	6938.683	-730
6938.684	-667.5	6938.684	2792.5	6938.684	1807.5	6938.684	-620
6938.685	-652.5	6938.685	2877.5	6938.685	1922.5	6938.685	-597.5
6938.686	-592.5	6938.686	2942.5	6938.686	1982.5	6938.686	-465
6938.687	-540	6938.687	3050	6938.687	2135	6938.687	-407.5
6938.688	-500	6938.688	3160	6938.688	2232.5	6938.688	-307.5
6938.689	-485	6938.689	3275	6938.689	2305	6938.689	-227.5
6938.69	-425	6938.69	3412.5	6938.69	2420	6938.69	-107.5
6938.691	-410	6938.691	3550	6938.691	2522.5	6938.691	-105
6938.692	-375	6938.692	3690	6938.692	2570	6938.692	-52.5
6938.693	-337.5	6938.693	3780	6938.693	2670	6938.693	-32.5
6938.694	-335	6938.694	3860	6938.694	2662.5	6938.694	65
6938.695	-265	6938.695	3942.5	6938.695	2587.5	6938.695	77.5
6938.696	-272.5	6938.696	4027.5	6938.696	2547.5	6938.696	85
6938.697	-237.5	6938.697	4135	6938.697	2500	6938.697	152.5
6938.698	-202.5	6938.698	4245	6938.698	2422.5	6938.698	90
6938.699	-212.5	6938.699	4380	6938.699	2335	6938.699	65
6938.7	-197.5	6938.7	4465	6938.7	2282.5	6938.7	-57.5
6938.701	-275	6938.701	4437.5	6938.701	2085	6938.701	-225
6938.702	-397.5	6938.702	4500	6938.702	2197.5	6938.702	-315
6938.703	45	6938.703	4865	6938.703	2817.5	6938.703	-15
6938.704	1492.5	6938.704	6007.5	6938.704	4712.5	6938.704	1535
6938.705	3265	6938.705	7085	6938.705	7122.5	6938.705	3667.5
6938.706	4420	6938.706	7157.5	6938.706	9185	6938.706	5792.5
6938.707	6937.5	6938.707	8282.5	6938.707	12167.5	6938.707	9015
6938.708	12675	6938.708	13710	6938.708	17035	6938.708	14845
6938.709	21050	6938.709	24085	6938.709	22170	6938.709	21670
6938.71	35102.5	6938.71	42107.5	6938.71	31292.5	6938.71	33450
6938.711	46315	6938.711	57992.5	6938.711	37307.5	6938.711	42620
6938.712	54302.5	6938.712	68705	6938.712	40270	6938.712	49327.5
6938.713	61260	6938.713	74307.5	6938.713	46767.5	6938.713	56065
6938.714	73072.5	6938.714	81917.5	6938.714	51362.5	6938.714	63865
6938.715	64650	6938.715	81917.5	6938.715	19577.5	6938.715	51772.5
6938.716	19295	6938.716	-6745	6938.716	-9197.5	6938.716	44157.5
6938.717	16535	6938.717	2047.5	6938.717	-85	6938.717	42712.5
6938.718	5825	6938.718	12642.5	6938.718	3000	6938.718	27457.5
6938.719	1715	6938.719	17082.5	6938.719	4255	6938.719	7322.5
6938.72	2030	6938.72	18740	6938.72	4310	6938.72	6105
6938.721	3762.5	6938.721	20735	6938.721	5045	6938.721	7187.5
6938.722	4705	6938.722	22115	6938.722	5400	6938.722	7545
6938.723	4277.5	6938.723	22187.5	6938.723	4420	6938.723	6527.5
6938.724	5400	6938.724	23575	6938.724	4175	6938.724	6802.5
6938.725	6065	6938.725	24642.5	6938.725	3825	6938.725	7075
6938.726	6390	6938.726	25587.5	6938.726	3212.5	6938.726	7255
6938.727	6345	6938.727	26250	6938.727	2537.5	6938.727	7170
6938.728	6875	6938.728	27562.5	6938.728	2507.5	6938.728	7722.5
6938.729	7945	6938.729	29020	6938.729	2770	6938.729	8882.5
6938.73	9340	6938.73	30362.5	6938.73	3342.5	6938.73	10607.5
6938.731	10697.5	6938.731	31332.5	6938.731	4030	6938.731	12335
6938.732	11980	6938.732	31967.5	6938.732	4782.5	6938.732	14052.5
6938.733	13297.5	6938.733	32255	6938.733	5705	6938.733	15810
6938.734	14417.5	6938.734	32352.5	6938.734	6710	6938.734	17392.5
6938.735	15340	6938.735	32092.5	6938.735	7607.5	6938.735	18552.5
6938.736	16040	6938.736	31837.5	6938.736	8470	6938.736	19550
6938.737	16540	6938.737	31242.5	6938.737	9325	6938.737	20225
6938.738	16817.5	6938.738	30737.5	6938.738	9940	6938.738	20665
6938.739	16955	6938.739	30200	6938.739	10480	6938.739	20922.5
6938.74	16945	6938.74	29580	6938.74	10835	6938.74	21055
6938.741	16790	6938.741	28995	6938.741	11020	6938.741	20947.5
6938.742	16555	6938.742	28497.5	6938.742	11042.5	6938.742	20892.5
6938.743	16287.5	6938.743	27857.5	6938.743	10992.5	6938.743	20625
6938.744	15907.5	6938.744	27310	6938.744	10845	6938.744	20275
6938.745	15555	6938.745	26647.5	6938.745	10777.5	6938.745	19935
6938.746	15115	6938.746	26112.5	6938.746	10502.5	6938.746	19485
6938.747	14697.5	6938.747	25547.5	6938.747	10240	6938.747	19102.5
6938.748	14235	6938.748	24925	6938.748	10032.5	6938.748	18575
6938.749	13752.5	6938.749	24460	6938.749	9720	6938.749	18160
6938.75	13257.5	6938.75	23887.5	6938.75	9355	6938.75	17650
6938.751	12780	6938.751	23387.5	6938.751	9010	6938.751	17222.5
6938.752	12285	6938.752	22847.5	6938.752	8607.5	6938.752	16687.5
6938.753	11857.5	6938.753	22417.5	6938.753	8207.5	6938.753	16185
6938.754	11365	6938.754	21915	6938.754	7817.5	6938.754	15772.5
6938.755	10922.5	6938.755	21382.5	6938.755	7322.5	6938.755	15195
6938.756	10470	6938.756	20852.5	6938.756	6882.5	6938.756	14642.5
6938.757	10057.5	6938.757	20397.5	6938.757	6467.5	6938.757	14110
6938.758	9680	6938.758	20082.5	6938.758	5970	6938.758	13637.5
6938.759	9277.5	6938.759	19622.5	6938.759	5485	6938.759	13157.5
6938.76	8867.5	6938.76	19267.5	6938.76	5030	6938.76	12765
6938.761	8565	6938.761	18875	6938.761	4692.5	6938.761	12277.5
6938.762	8212.5	6938.762	18547.5	6938.762	4410	6938.762	11892.5
6938.763	7875	6938.763	18240	6938.763	3997.5	6938.763	11505
6938.764	7515	6938.764	17940	6938.764	3690	6938.764	11095
6938.765	7287.5	6938.765	17660	6938.765	3487.5	6938.765	10820
6938.766	7002.5	6938.766	17247.5	6938.766	3345	6938.766	10560
6938.767	6707.5	6938.767	16887.5	6938.767	3180	6938.767	10285
6938.768	6500	6938.768	16662.5	6938.768	3127.5	6938.768	9982.5
6938.769	6235	6938.769	16350	6938.769	2982.5	6938.769	9692.5
6938.77	6012.5	6938.77	16122.5	6938.77	2835	6938.77	9380
6938.771	5782.5	6938.771	15922.5	6938.771	2775	6938.771	8860
6938.772	5527.5	6938.772	15655	6938.772	2590	6938.772	8385
6938.773	5335	6938.773	15320	6938.773	2500	6938.773	7902.5
6938.774	5112.5	6938.774	15160	6938.774	2280	6938.774	7420
6938.775	4825	6938.775	14830	6938.775	2010	6938.775	6870
6938.776	4630	6938.776	14512.5	6938.776	1802.5	6938.776	6320
6938.777	4385	6938.777	14252.5	6938.777	1615	6938.777	5722.5
6938.778	4160	6938.778	13982.5	6938.778	1307.5	6938.778	5177.5
6938.779	3942.5	6938.779	13697.5	6938.779	990	6938.779	4660
6938.78	3725	6938.78	13490	6938.78	765	6938.78	4185
6938.781	3507.5	6938.781	13232.5	6938.781	552.5	6938.781	3630
6938.782	3282.5	6938.782	13065	6938.782	352.5	6938.782	3182.5
6938.783	3112.5	6938.783	12760	6938.783	75	6938.783	2790
6938.784	2872.5	6938.784	12492.5	6938.784	-5	6938.784	2242.5
6938.785	2712.5	6938.785	12227.5	6938.785	-20	6938.785	1977.5
6938.786	2557.5	6938.786	11885	6938.786	-65	6938.786	1632.5
6938.787	2375	6938.787	11695	6938.787	-125	6938.787	1367.5
6938.788	2187.5	6938.788	11400	6938.788	-175	6938.788	1012.5
6938.789	1997.5	6938.789	11117.5	6938.789	-257.5	6938.789	692.5
6938.79	1830	6938.79	10805	6938.79	-297.5	6938.79	447.5
6938.791	1695	6938.791	10650	6938.791	-335	6938.791	187.5
6938.792	1497.5	6938.792	10427.5	6938.792	-412.5	6938.792	-175
6938.793	1310	6938.793	10162.5	6938.793	-595	6938.793	-415
6938.794	1092.5	6938.794	9847.5	6938.794	-705	6938.794	-752.5
6938.795	905	6938.795	9522.5	6938.795	-902.5	6938.795	-1095
6938.796	687.5	6938.796	9195	6938.796	-1045	6938.796	-1387.5
6938.797	475	6938.797	8857.5	6938.797	-1280	6938.797	-1677.5
6938.798	320	6938.798	8697.5	6938.798	-1500	6938.798	-1980
6938.799	110	6938.799	8387.5	6938.799	-1762.5	6938.799	-2202.5
6938.8	-110	6938.8	8107.5	6938.8	-1945	6938.8	-2595
6938.801	-290	6938.801	7860	6938.801	-2202.5	6938.801	-2767.5
6938.802	-472.5	6938.802	7700	6938.802	-2310	6938.802	-2960
6938.803	-632.5	6938.803	7400	6938.803	-2492.5	6938.803	-3232.5
6938.804	-817.5	6938.804	7180	6938.804	-2655	6938.804	-3480
6938.805	-975	6938.805	6832.5	6938.805	-2685	6938.805	-3592.5
6938.806	-1140	6938.806	6645	6938.806	-2700	6938.806	-3760
6938.807	-1295	6938.807	6352.5	6938.807	-2720	6938.807	-3880
6938.808	-1440	6938.808	6127.5	6938.808	-2755	6938.808	-3987.5
6938.809	-1655	6938.809	5797.5	6938.809	-2860	6938.809	-4095
6938.81	-1777.5	6938.81	5600	6938.81	-2945	6938.81	-4252.5
6938.811	-1920	6938.811	5420	6938.811	-2890	6938.811	-4377.5
6938.812	-2067.5	6938.812	5180	6938.812	-3027.5	6938.812	-4525
6938.813	-2217.5	6938.813	4917.5	6938.813	-3065	6938.813	-4655
6938.814	-2385	6938.814	4670	6938.814	-3200	6938.814	-4830
6938.815	-2542.5	6938.815	4480	6938.815	-3330	6938.815	-5032.5
6938.816	-2732.5	6938.816	4232.5	6938.816	-3512.5	6938.816	-5232.5
6938.817	-2852.5	6938.817	3987.5	6938.817	-3700	6938.817	-5432.5
6938.818	-3022.5	6938.818	3777.5	6938.818	-3890	6938.818	-5565
6938.819	-3152.5	6938.819	3612.5	6938.819	-4105	6938.819	-5762.5
6938.82	-3332.5	6938.82	3310	6938.82	-4330	6938.82	-5942.5
6938.821	-3482.5	6938.821	3185	6938.821	-4555	6938.821	-6105
6938.822	-3560	6938.822	3062.5	6938.822	-4670	6938.822	-6217.5
6938.823	-3687.5	6938.823	2850	6938.823	-4800	6938.823	-6327.5
6938.824	-3770	6938.824	2747.5	6938.824	-4895	6938.824	-6430
6938.825	-3860	6938.825	2615	6938.825	-4885	6938.825	-6525
6938.826	-3975	6938.826	2517.5	6938.826	-4885	6938.826	-6600
6938.827	-4097.5	6938.827	2355	6938.827	-4840	6938.827	-6650
6938.828	-4157.5	6938.828	2222.5	6938.828	-4822.5	6938.828	-6707.5
6938.829	-4272.5	6938.829	2152.5	6938.829	-4805	6938.829	-6755
6938.83	-4335	6938.83	2062.5	6938.83	-4720	6938.83	-6762.5
6938.831	-4402.5	6938.831	1955	6938.831	-4715	6938.831	-6842.5
6938.832	-4505	6938.832	1812.5	6938.832	-4777.5	6938.832	-6870
6938.833	-4610	6938.833	1767.5	6938.833	-4780	6938.833	-6935
6938.834	-4662.5	6938.834	1625	6938.834	-4842.5	6938.834	-7080
6938.835	-4727.5	6938.835	1565	6938.835	-4957.5	6938.835	-7035
6938.836	-4780	6938.836	1347.5	6938.836	-5077.5	6938.836	-7162.5
6938.837	-4890	6938.837	1275	6938.837	-5265	6938.837	-7290
6938.838	-4992.5	6938.838	1125	6938.838	-5327.5	6938.838	-7380
6938.839	-5022.5	6938.839	1115	6938.839	-5492.5	6938.839	-7460
6938.84	-5105	6938.84	975	6938.84	-5665	6938.84	-7520
6938.841	-5185	6938.841	1015	6938.841	-5815	6938.841	-7635
6938.842	-5212.5	6938.842	947.5	6938.842	-5782.5	6938.842	-7642.5
6938.843	-5245	6938.843	940	6938.843	-5802.5	6938.843	-7727.5
6938.844	-5267.5	6938.844	872.5	6938.844	-5872.5	6938.844	-7702.5
6938.845	-5285	6938.845	895	6938.845	-5867.5	6938.845	-7682.5
6938.846	-5250	6938.846	835	6938.846	-5832.5	6938.846	-7692.5
6938.847	-5337.5	6938.847	805	6938.847	-5737.5	6938.847	-7612.5
6938.848	-5322.5	6938.848	775	6938.848	-5665	6938.848	-7542.5
6938.849	-5330	6938.849	782.5	6938.849	-5585	6938.849	-7587.5
6938.85	-5362.5	6938.85	730	6938.85	-5477.5	6938.85	-7520
6938.851	-5302.5	6938.851	740	6938.851	-5375	6938.851	-7457.5
6938.852	-5372.5	6938.852	715	6938.852	-5430	6938.852	-7480
6938.853	-5397.5	6938.853	777.5	6938.853	-5292.5	6938.853	-7400
6938.854	-5342.5	6938.854	727.5	6938.854	-5227.5	6938.854	-7412.5
6938.855	-5377.5	6938.855	690	6938.855	-5295	6938.855	-7445
6938.856	-5367.5	6938.856	580	6938.856	-5370	6938.856	-7422.5
6938.857	-5412.5	6938.857	542.5	6938.857	-5532.5	6938.857	-7432.5
6938.858	-5390	6938.858	475	6938.858	-5632.5	6938.858	-7490
6938.859	-5422.5	6938.859	552.5	6938.859	-5710	6938.859	-7500
6938.86	-5405	6938.86	482.5	6938.86	-5800	6938.86	-7555
6938.861	-5430	6938.861	475	6938.861	-5850	6938.861	-7540
6938.862	-5375	6938.862	617.5	6938.862	-5870	6938.862	-7547.5
6938.863	-5420	6938.863	665	6938.863	-5877.5	6938.863	-7527.5
6938.864	-5387.5	6938.864	662.5	6938.864	-5832.5	6938.864	-7477.5
6938.865	-5357.5	6938.865	670	6938.865	-5782.5	6938.865	-7392.5
6938.866	-5285	6938.866	655	6938.866	-5710	6938.866	-7252.5
6938.867	-5282.5	6938.867	565	6938.867	-5572.5	6938.867	-7265
6938.868	-5260	6938.868	620	6938.868	-5390	6938.868	-7132.5
6938.869	-5257.5	6938.869	660	6938.869	-5387.5	6938.869	-7032.5
6938.87	-5230	6938.87	640	6938.87	-5235	6938.87	-7025
6938.871	-5197.5	6938.871	690	6938.871	-5055	6938.871	-6950
6938.872	-5167.5	6938.872	725	6938.872	-5017.5	6938.872	-6920
6938.873	-5155	6938.873	740	6938.873	-5005	6938.873	-6830
6938.874	-5105	6938.874	767.5	6938.874	-4952.5	6938.874	-6772.5
6938.875	-5182.5	6938.875	760	6938.875	-4997.5	6938.875	-6787.5
6938.876	-5112.5	6938.876	775	6938.876	-4995	6938.876	-6742.5
6938.877	-5080	6938.877	745	6938.877	-5065	6938.877	-6757.5
6938.878	-5070	6938.878	720	6938.878	-5130	6938.878	-6777.5
6938.879	-5117.5	6938.879	727.5	6938.879	-5217.5	6938.879	-6785
6938.88	-5072.5	6938.88	727.5	6938.88	-5252.5	6938.88	-6872.5
6938.881	-5095	6938.881	827.5	6938.881	-5372.5	6938.881	-6840
6938.882	-5052.5	6938.882	850	6938.882	-5332.5	6938.882	-6797.5
6938.883	-5027.5	6938.883	937.5	6938.883	-5330	6938.883	-6725
6938.884	-5002.5	6938.884	880	6938.884	-5270	6938.884	-6690
6938.885	-4940	6938.885	845	6938.885	-5242.5	6938.885	-6647.5
6938.886	-4920	6938.886	1007.5	6938.886	-5062.5	6938.886	-6512.5
6938.887	-4870	6938.887	1012.5	6938.887	-5040	6938.887	-6452.5
6938.888	-4852.5	6938.888	1105	6938.888	-4875	6938.888	-6317.5
6938.889	-4820	6938.889	1080	6938.889	-4800	6938.889	-6307.5
6938.89	-4770	6938.89	1180	6938.89	-4650	6938.89	-6175
6938.891	-4760	6938.891	1147.5	6938.891	-4542.5	6938.891	-6110
6938.892	-4745	6938.892	1357.5	6938.892	-4415	6938.892	-6005
6938.893	-4705	6938.893	1332.5	6938.893	-4345	6938.893	-5970
6938.894	-4730	6938.894	1365	6938.894	-4325	6938.894	-5940
6938.895	-4735	6938.895	1385	6938.895	-4317.5	6938.895	-5937.5
6938.896	-4712.5	6938.896	1415	6938.896	-4402.5	6938.896	-5927.5
6938.897	-4712.5	6938.897	1452.5	6938.897	-4375	6938.897	-5957.5
6938.898	-4665	6938.898	1350	6938.898	-4495	6938.898	-5927.5
6938.899	-4685	6938.899	1362.5	6938.899	-4580	6938.899	-5947.5
6938.9	-4672.5	6938.9	1352.5	6938.9	-4660	6938.9	-5940
6938.901	-4685	6938.901	1320	6938.901	-4650	6938.901	-5967.5
6938.902	-4660	6938.902	1422.5	6938.902	-4652.5	6938.902	-5867.5
6938.903	-4637.5	6938.903	1420	6938.903	-4675	6938.903	-5915
6938.904	-4625	6938.904	1465	6938.904	-4630	6938.904	-5860
6938.905	-4542.5	6938.905	1525	6938.905	-4502.5	6938.905	-5842.5
6938.906	-4527.5	6938.906	1542.5	6938.906	-4410	6938.906	-5660
6938.907	-4485	6938.907	1547.5	6938.907	-4332.5	6938.907	-5610
6938.908	-4457.5	6938.908	1595	6938.908	-4200	6938.908	-5460
6938.909	-4420	6938.909	1642.5	6938.909	-4095	6938.909	-5430
6938.91	-4397.5	6938.91	1690	6938.91	-3917.5	6938.91	-5280
6938.911	-4385	6938.911	1705	6938.911	-3812.5	6938.911	-5225
6938.912	-4360	6938.912	1647.5	6938.912	-3760	6938.912	-5200
6938.913	-4345	6938.913	1732.5	6938.913	-3622.5	6938.913	-5132.5
6938.914	-4322.5	6938.914	1682.5	6938.914	-3622.5	6938.914	-5112.5
6938.915	-4362.5	6938.915	1692.5	6938.915	-3675	6938.915	-5060
6938.916	-4305	6938.916	1672.5	6938.916	-3767.5	6938.916	-5155
6938.917	-4302.5	6938.917	1675	6938.917	-3792.5	6938.917	-5100
6938.918	-4332.5	6938.918	1592.5	6938.918	-3845	6938.918	-5135
6938.919	-4312.5	6938.919	1650	6938.919	-3942.5	6938.919	-5082.5
6938.92	-4290	6938.92	1535	6938.92	-4060	6938.92	-5117.5
6938.921	-4307.5	6938.921	1625	6938.921	-4057.5	6938.921	-5112.5
6938.922	-4255	6938.922	1682.5	6938.922	-4070	6938.922	-5135
6938.923	-4247.5	6938.923	1612.5	6938.923	-4087.5	6938.923	-5127.5
6938.924	-4227.5	6938.924	1722.5	6938.924	-4097.5	6938.924	-4997.5
6938.925	-4207.5	6938.925	1747.5	6938.925	-4067.5	6938.925	-5010
6938.926	-4152.5	6938.926	1737.5	6938.926	-3900	6938.926	-4865
6938.927	-4107.5	6938.927	1782.5	6938.927	-3825	6938.927	-4812.5
6938.928	-4057.5	6938.928	1767.5	6938.928	-3670	6938.928	-4692.5
6938.929	-4045	6938.929	1737.5	6938.929	-3595	6938.929	-4655
6938.93	-4032.5	6938.93	1925	6938.93	-3435	6938.93	-4547.5
6938.931	-3980	6938.931	2007.5	6938.931	-3305	6938.931	-4450
6938.932	-3955	6938.932	1957.5	6938.932	-3257.5	6938.932	-4415
6938.933	-3932.5	6938.933	1997.5	6938.933	-3142.5	6938.933	-4335
6938.934	-3932.5	6938.934	1875	6938.934	-3157.5	6938.934	-4312.5
6938.935	-3897.5	6938.935	1987.5	6938.935	-3160	6938.935	-4327.5
6938.936	-3937.5	6938.936	1897.5	6938.936	-3260	6938.936	-4305
6938.937	-3910	6938.937	1877.5	6938.937	-3325	6938.937	-4267.5
6938.938	-3905	6938.938	1860	6938.938	-3442.5	6938.938	-4365
6938.939	-3845	6938.939	1795	6938.939	-3502.5	6938.939	-4287.5
6938.94	-3845	6938.94	1835	6938.94	-3562.5	6938.94	-4290
6938.941	-3837.5	6938.941	1817.5	6938.941	-3605	6938.941	-4340
6938.942	-3827.5	6938.942	1772.5	6938.942	-3587.5	6938.942	-4287.5
6938.943	-3802.5	6938.943	1817.5	6938.943	-3662.5	6938.943	-4305
6938.944	-3752.5	6938.944	1890	6938.944	-3610	6938.944	-4197.5
6938.945	-3725	6938.945	1810	6938.945	-3555	6938.945	-4177.5
6938.946	-3662.5	6938.946	1827.5	6938.946	-3477.5	6938.946	-4037.5
6938.947	-3617.5	6938.947	1817.5	6938.947	-3337.5	6938.947	-4030
6938.948	-3585	6938.948	1817.5	6938.948	-3195	6938.948	-3862.5
6938.949	-3490	6938.949	1812.5	6938.949	-3140	6938.949	-3810
6938.95	-3490	6938.95	1895	6938.95	-2967.5	6938.95	-3642.5
6938.951	-3452.5	6938.951	1930	6938.951	-2937.5	6938.951	-3557.5
6938.952	-3412.5	6938.952	1982.5	6938.952	-2837.5	6938.952	-3495
6938.953	-3392.5	6938.953	1880	6938.953	-2785	6938.953	-3442.5
6938.954	-3345	6938.954	1990	6938.954	-2720	6938.954	-3422.5
6938.955	-3335	6938.955	1900	6938.955	-2742.5	6938.955	-3390
6938.956	-3312.5	6938.956	1735	6938.956	-2837.5	6938.956	-3330
6938.957	-3277.5	6938.957	1677.5	6938.957	-2870	6938.957	-3330
6938.958	-3265	6938.958	1637.5	6938.958	-2987.5	6938.958	-3402.5
6938.959	-3235	6938.959	1700	6938.959	-3050	6938.959	-3395
6938.96	-3192.5	6938.96	1612.5	6938.96	-3157.5	6938.96	-3382.5
6938.961	-3177.5	6938.961	1680	6938.961	-3205	6938.961	-3370
6938.962	-3162.5	6938.962	1712.5	6938.962	-3205	6938.962	-3315
6938.963	-3137.5	6938.963	1720	6938.963	-3262.5	6938.963	-3280
6938.964	-3065	6938.964	1712.5	6938.964	-3272.5	6938.964	-3190
6938.965	-3017.5	6938.965	1690	6938.965	-3192.5	6938.965	-3082.5
6938.966	-2965	6938.966	1652.5	6938.966	-3065	6938.966	-3042.5
6938.967	-2947.5	6938.967	1650	6938.967	-3040	6938.967	-2915
6938.968	-2852.5	6938.968	1512.5	6938.968	-2890	6938.968	-2830
6938.969	-2822.5	6938.969	1580	6938.969	-2795	6938.969	-2742.5
6938.97	-2777.5	6938.97	1565	6938.97	-2670	6938.97	-2627.5
6938.971	-2732.5	6938.971	1707.5	6938.971	-2575	6938.971	-2480
6938.972	-2677.5	6938.972	1665	6938.972	-2597.5	6938.972	-2440
6938.973	-2630	6938.973	1720	6938.973	-2487.5	6938.973	-2340
6938.974	-2580	6938.974	1642.5	6938.974	-2455	6938.974	-2280
6938.975	-2542.5	6938.975	1610	6938.975	-2592.5	6938.975	-2267.5
6938.976	-2500	6938.976	1422.5	6938.976	-2605	6938.976	-2182.5
6938.977	-2440	6938.977	1477.5	6938.977	-2597.5	6938.977	-2135
6938.978	-2452.5	6938.978	1425	6938.978	-2690	6938.978	-2165
6938.979	-2402.5	6938.979	1442.5	6938.979	-2755	6938.979	-2090
6938.98	-2355	6938.98	1407.5	6938.98	-2917.5	6938.98	-2100
6938.981	-2330	6938.981	1357.5	6938.981	-2962.5	6938.981	-2115
6938.982	-2282.5	6938.982	1277.5	6938.982	-2935	6938.982	-2072.5
6938.983	-2217.5	6938.983	1315	6938.983	-3045	6938.983	-2025
6938.984	-2180	6938.984	1252.5	6938.984	-3005	6938.984	-1922.5
6938.985	-2110	6938.985	1285	6938.985	-2962.5	6938.985	-1917.5
6938.986	-2072.5	6938.986	1270	6938.986	-2892.5	6938.986	-1750
6938.987	-2017.5	6938.987	1172.5	6938.987	-2752.5	6938.987	-1692.5
6938.988	-1922.5	6938.988	1175	6938.988	-2657.5	6938.988	-1602.5
6938.989	-1912.5	6938.989	1092.5	6938.989	-2635	6938.989	-1525
6938.99	-1867.5	6938.99	1005	6938.99	-2450	6938.99	-1340
6938.991	-1802.5	6938.991	1000	6938.991	-2335	6938.991	-1265
6938.992	-1752.5	6938.992	982.5	6938.992	-2237.5	6938.992	-1210
6938.993	-1722.5	6938.993	905	6938.993	-2275	6938.993	-1080
6938.994	-1685	6938.994	860	6938.994	-2200	6938.994	-1055
6938.995	-1630	6938.995	800	6938.995	-2297.5	6938.995	-1035
6938.996	-1625	6938.996	745	6938.996	-2355	6938.996	-1017.5
6938.997	-1572.5	6938.997	640	6938.997	-2437.5	6938.997	-972.5
6938.998	-1545	6938.998	450	6938.998	-2577.5	6938.998	-912.5
6938.999	-1545	6938.999	395	6938.999	-2680	6938.999	-885
6939	-1532.5	6939	352.5	6939	-2762.5	6939	-852.5
6939.001	-1537.5	6939.001	212.5	6939.001	-2880	6939.001	-875
6939.002	-1490	6939.002	237.5	6939.002	-2855	6939.002	-775
6939.003	-1477.5	6939.003	175	6939.003	-2937.5	6939.003	-777.5
6939.004	-1450	6939.004	135	6939.004	-2912.5	6939.004	-632.5
6939.005	-1410	6939.005	60	6939.005	-2950	6939.005	-605
6939.006	-1337.5	6939.006	-10	6939.006	-2805	6939.006	-477.5
6939.007	-1302.5	6939.007	-97.5	6939.007	-2760	6939.007	-355
6939.008	-1280	6939.008	-232.5	6939.008	-2677.5	6939.008	-250
6939.009	-1255	6939.009	-357.5	6939.009	-2615	6939.009	-185
6939.01	-1237.5	6939.01	-380	6939.01	-2457.5	6939.01	-87.5
6939.011	-1167.5	6939.011	-505	6939.011	-2407.5	6939.011	7.5
6939.012	-1177.5	6939.012	-407.5	6939.012	-2407.5	6939.012	25
6939.013	-1110	6939.013	-457.5	6939.013	-2310	6939.013	67.5
6939.014	-1142.5	6939.014	-632.5	6939.014	-2310	6939.014	135
6939.015	-1142.5	6939.015	-687.5	6939.015	-2400	6939.015	220
6939.016	-1100	6939.016	-740	6939.016	-2532.5	6939.016	180
6939.017	-1055	6939.017	-827.5	6939.017	-2525	6939.017	217.5
6939.018	-1105	6939.018	-927.5	6939.018	-2702.5	6939.018	187.5
6939.019	-1110	6939.019	-987.5	6939.019	-2800	6939.019	175
6939.02	-1090	6939.02	-997.5	6939.02	-2905	6939.02	177.5
6939.021	-1087.5	6939.021	-1172.5	6939.021	-3020	6939.021	182.5
6939.022	-1057.5	6939.022	-1195	6939.022	-3065	6939.022	282.5
6939.023	-1050	6939.023	-1332.5	6939.023	-3152.5	6939.023	262.5
6939.024	-1030	6939.024	-1320	6939.024	-3167.5	6939.024	305
6939.025	-1055	6939.025	-1405	6939.025	-3080	6939.025	292.5
6939.026	-967.5	6939.026	-1567.5	6939.026	-3035	6939.026	407.5
6939.027	-942.5	6939.027	-1600	6939.027	-2972.5	6939.027	560
6939.028	-925	6939.028	-1555	6939.028	-2907.5	6939.028	587.5
6939.029	-920	6939.029	-1637.5	6939.029	-2815	6939.029	687.5
6939.03	-880	6939.03	-1655	6939.03	-2687.5	6939.03	742.5
6939.031	-845	6939.031	-1705	6939.031	-2657.5	6939.031	792.5
6939.032	-867.5	6939.032	-1730	6939.032	-2615	6939.032	870
6939.033	-837.5	6939.033	-1825	6939.033	-2602.5	6939.033	915
6939.034	-837.5	6939.034	-1957.5	6939.034	-2550	6939.034	945
6939.035	-865	6939.035	-2050	6939.035	-2660	6939.035	860
6939.036	-870	6939.036	-2122.5	6939.036	-2732.5	6939.036	872.5
6939.037	-857.5	6939.037	-2222.5	6939.037	-2802.5	6939.037	907.5
6939.038	-837.5	6939.038	-2392.5	6939.038	-2997.5	6939.038	872.5
6939.039	-860	6939.039	-2432.5	6939.039	-3002.5	6939.039	857.5
6939.04	-890	6939.04	-2520	6939.04	-3110	6939.04	815
6939.041	-882.5	6939.041	-2630	6939.041	-3220	6939.041	760
6939.042	-882.5	6939.042	-2665	6939.042	-3242.5	6939.042	782.5
6939.043	-852.5	6939.043	-2822.5	6939.043	-3222.5	6939.043	782.5
6939.044	-857.5	6939.044	-2922.5	6939.044	-3217.5	6939.044	820
6939.045	-797.5	6939.045	-2890	6939.045	-3105	6939.045	865
6939.046	-805	6939.046	-2865	6939.046	-2980	6939.046	920
6939.047	-795	6939.047	-2852.5	6939.047	-2992.5	6939.047	987.5
6939.048	-767.5	6939.048	-2857.5	6939.048	-2792.5	6939.048	1012.5
6939.049	-770	6939.049	-2917.5	6939.049	-2705	6939.049	1042.5
6939.05	-742.5	6939.05	-2957.5	6939.05	-2607.5	6939.05	1162.5
6939.051	-727.5	6939.051	-2855	6939.051	-2465	6939.051	1200
6939.052	-725	6939.052	-2825	6939.052	-2397.5	6939.052	1217.5
6939.053	-747.5	6939.053	-2925	6939.053	-2290	6939.053	1265
6939.054	-735	6939.054	-2940	6939.054	-2327.5	6939.054	1255
6939.055	-790	6939.055	-2990	6939.055	-2330	6939.055	1240
6939.056	-740	6939.056	-3000	6939.056	-2342.5	6939.056	1220
6939.057	-747.5	6939.057	-3095	6939.057	-2487.5	6939.057	1162.5
6939.058	-720	6939.058	-3147.5	6939.058	-2462.5	6939.058	1157.5
6939.059	-760	6939.059	-3097.5	6939.059	-2452.5	6939.059	1082.5
6939.06	-780	6939.06	-3157.5	6939.06	-2492.5	6939.06	1030
6939.061	-785	6939.061	-3177.5	6939.061	-2560	6939.061	982.5
6939.062	-772.5	6939.062	-3162.5	6939.062	-2570	6939.062	967.5
6939.063	-757.5	6939.063	-3057.5	6939.063	-2535	6939.063	900
6939.064	-737.5	6939.064	-3080	6939.064	-2477.5	6939.064	950
6939.065	-727.5	6939.065	-3077.5	6939.065	-2345	6939.065	967.5
6939.066	-712.5	6939.066	-3112.5	6939.066	-2257.5	6939.066	1032.5
6939.067	-712.5	6939.067	-3147.5	6939.067	-2165	6939.067	1110
6939.068	-685	6939.068	-3127.5	6939.068	-2040	6939.068	1187.5
6939.069	-650	6939.069	-3160	6939.069	-1935	6939.069	1195
6939.07	-637.5	6939.07	-3150	6939.07	-1832.5	6939.07	1215
6939.071	-627.5	6939.071	-3207.5	6939.071	-1640	6939.071	1255
6939.072	-622.5	6939.072	-3157.5	6939.072	-1600	6939.072	1327.5
6939.073	-585	6939.073	-3082.5	6939.073	-1442.5	6939.073	1295
6939.074	-592.5	6939.074	-3190	6939.074	-1385	6939.074	1307.5
6939.075	-630	6939.075	-3157.5	6939.075	-1365	6939.075	1265
6939.076	-590	6939.076	-3245	6939.076	-1465	6939.076	1252.5
6939.077	-587.5	6939.077	-3290	6939.077	-1427.5	6939.077	1210
6939.078	-632.5	6939.078	-3360	6939.078	-1510	6939.078	1137.5
6939.079	-607.5	6939.079	-3445	6939.079	-1560	6939.079	1092.5
6939.08	-635	6939.08	-3362.5	6939.08	-1555	6939.08	1035
6939.081	-642.5	6939.081	-3332.5	6939.081	-1632.5	6939.081	972.5
6939.082	-607.5	6939.082	-3377.5	6939.082	-1652.5	6939.082	927.5
6939.083	-635	6939.083	-3272.5	6939.083	-1647.5	6939.083	927.5
6939.084	-602.5	6939.084	-3337.5	6939.084	-1550	6939.084	990
6939.085	-597.5	6939.085	-3280	6939.085	-1525	6939.085	1042.5
6939.086	-545	6939.086	-3295	6939.086	-1390	6939.086	1040
6939.087	-537.5	6939.087	-3287.5	6939.087	-1257.5	6939.087	1115
6939.088	-515	6939.088	-3257.5	6939.088	-1030	6939.088	1095
6939.089	-502.5	6939.089	-3285	6939.089	-942.5	6939.089	1102.5
6939.09	-470	6939.09	-3315	6939.09	-795	6939.09	1250
6939.091	-495	6939.091	-3267.5	6939.091	-685	6939.091	1247.5
6939.092	-470	6939.092	-3242.5	6939.092	-617.5	6939.092	1215
6939.093	-487.5	6939.093	-3140	6939.093	-465	6939.093	1260
6939.094	-437.5	6939.094	-3162.5	6939.094	-405	6939.094	1245
6939.095	-500	6939.095	-3215	6939.095	-477.5	6939.095	1202.5
6939.096	-500	6939.096	-3152.5	6939.096	-520	6939.096	1127.5
6939.097	-462.5	6939.097	-3222.5	6939.097	-527.5	6939.097	1132.5
6939.098	-495	6939.098	-3247.5	6939.098	-597.5	6939.098	1070
6939.099	-485	6939.099	-3287.5	6939.099	-605	6939.099	992.5
6939.1	-510	6939.1	-3297.5	6939.1	-625	6939.1	970
6939.101	-527.5	6939.101	-3290	6939.101	-695	6939.101	917.5
6939.102	-535	6939.102	-3267.5	6939.102	-682.5	6939.102	887.5
6939.103	-492.5	6939.103	-3212.5	6939.103	-652.5	6939.103	890
6939.104	-472.5	6939.104	-3272.5	6939.104	-657.5	6939.104	847.5
6939.105	-455	6939.105	-3247.5	6939.105	-605	6939.105	877.5
6939.106	-415	6939.106	-3252.5	6939.106	-497.5	6939.106	925
6939.107	-427.5	6939.107	-3237.5	6939.107	-342.5	6939.107	962.5
6939.108	-350	6939.108	-3175	6939.108	-115	6939.108	1040
6939.109	-370	6939.109	-3142.5	6939.109	-7.5	6939.109	1082.5
6939.11	-372.5	6939.11	-3157.5	6939.11	50	6939.11	1127.5
6939.111	-400	6939.111	-3057.5	6939.111	170	6939.111	1127.5
6939.112	-437.5	6939.112	-3085	6939.112	187.5	6939.112	1150
6939.113	-400	6939.113	-3017.5	6939.113	317.5	6939.113	1212.5
6939.114	-407.5	6939.114	-3015	6939.114	407.5	6939.114	1212.5
6939.115	-435	6939.115	-3047.5	6939.115	315	6939.115	1162.5
6939.116	-507.5	6939.116	-3157.5	6939.116	205	6939.116	1022.5
6939.117	-462.5	6939.117	-3055	6939.117	247.5	6939.117	1087.5
6939.118	-460	6939.118	-3177.5	6939.118	137.5	6939.118	1035
6939.119	-485	6939.119	-3282.5	6939.119	42.5	6939.119	935
6939.12	-517.5	6939.12	-3197.5	6939.12	-27.5	6939.12	905
6939.121	-612.5	6939.121	-3305	6939.121	-252.5	6939.121	775
6939.122	-675	6939.122	-3350	6939.122	-277.5	6939.122	662.5
6939.123	-592.5	6939.123	-3295	6939.123	-255	6939.123	715
6939.124	-585	6939.124	-3227.5	6939.124	-217.5	6939.124	812.5
6939.125	-670	6939.125	-3320	6939.125	-300	6939.125	660
6939.126	-755	6939.126	-3317.5	6939.126	-195	6939.126	665
6939.127	-865	6939.127	-3500	6939.127	-165	6939.127	587.5
6939.128	-1337.5	6939.128	-3857.5	6939.128	-440	6939.128	212.5
6939.129	-1485	6939.129	-4032.5	6939.129	-475	6939.129	105
6939.13	-1800	6939.13	-4265	6939.13	-692.5	6939.13	-140
6939.131	-2720	6939.131	-5037.5	6939.131	-1442.5	6939.131	-997.5
6939.132	-2925	6939.132	-5242.5	6939.132	-1627.5	6939.132	-1230
6939.133	-2762.5	6939.133	-5037.5	6939.133	-1462.5	6939.133	-1077.5
6939.134	-2610	6939.134	-4885	6939.134	-1292.5	6939.134	-907.5
6939.135	-2832.5	6939.135	-5050	6939.135	-1515	6939.135	-1130
6939.136	-2542.5	6939.136	-4797.5	6939.136	-1262.5	6939.136	-845
6939.137	-2325	6939.137	-4635	6939.137	-1207.5	6939.137	-762.5
6939.138	-2262.5	6939.138	-4570	6939.138	-1217.5	6939.138	-707.5
6939.139	-2160	6939.139	-4395	6939.139	-1210	6939.139	-607.5
6939.14	-2457.5	6939.14	-4712.5	6939.14	-1565	6939.14	-980
6939.141	-2517.5	6939.141	-4655	6939.141	-1662.5	6939.141	-1092.5
6939.142	-2017.5	6939.142	-4122.5	6939.142	-1242.5	6939.142	-577.5
6939.143	-1600	6939.143	-3752.5	6939.143	-927.5	6939.143	-307.5
6939.144	-2195	6939.144	-4257.5	6939.144	-1362.5	6939.144	-742.5
6939.145	-2547.5	6939.145	-4612.5	6939.145	-1735	6939.145	-1117.5
6939.146	-2045	6939.146	-4162.5	6939.146	-1197.5	6939.146	-657.5
6939.147	-1460	6939.147	-3677.5	6939.147	-585	6939.147	-55
6939.148	-890	6939.148	-3150	6939.148	115	6939.148	615
6939.149	-1040	6939.149	-3215	6939.149	85	6939.149	497.5
6939.15	-1242.5	6939.15	-3460	6939.15	-27.5	6939.15	310
6939.151	-1480	6939.151	-3580	6939.151	-135	6939.151	192.5
6939.152	-1615	6939.152	-3650	6939.152	-192.5	6939.152	125
6939.153	-1637.5	6939.153	-3727.5	6939.153	-197.5	6939.153	55
6939.154	-1710	6939.154	-3717.5	6939.154	-220	6939.154	5
6939.155	-1800	6939.155	-3845	6939.155	-257.5	6939.155	-77.5
6939.156	-1862.5	6939.156	-3907.5	6939.156	-410	6939.156	-142.5
6939.157	-1885	6939.157	-3872.5	6939.157	-470	6939.157	-200
6939.158	-1905	6939.158	-3865	6939.158	-565	6939.158	-267.5
6939.159	-1920	6939.159	-3877.5	6939.159	-710	6939.159	-252.5
6939.16	-1945	6939.16	-3815	6939.16	-772.5	6939.16	-380
6939.161	-1945	6939.161	-3782.5	6939.161	-885	6939.161	-412.5
6939.162	-1920	6939.162	-3805	6939.162	-807.5	6939.162	-450
6939.163	-1920	6939.163	-3722.5	6939.163	-857.5	6939.163	-422.5
6939.164	-1930	6939.164	-3685	6939.164	-842.5	6939.164	-422.5
6939.165	-1902.5	6939.165	-3620	6939.165	-795	6939.165	-362.5
6939.166	-1832.5	6939.166	-3672.5	6939.166	-675	6939.166	-185
6939.167	-1797.5	6939.167	-3647.5	6939.167	-562.5	6939.167	-177.5
6939.168	-1792.5	6939.168	-3605	6939.168	-440	6939.168	-130
6939.169	-1747.5	6939.169	-3540	6939.169	-315	6939.169	-25
6939.17	-1702.5	6939.17	-3460	6939.17	-142.5	6939.17	5
6939.171	-1637.5	6939.171	-3365	6939.171	-27.5	6939.171	92.5
6939.172	-1642.5	6939.172	-3252.5	6939.172	-5	6939.172	125
6939.173	-1570	6939.173	-3237.5	6939.173	82.5	6939.173	180
6939.174	-1577.5	6939.174	-3142.5	6939.174	132.5	6939.174	185
6939.175	-1560	6939.175	-3090	6939.175	170	6939.175	187.5
6939.176	-1552.5	6939.176	-3102.5	6939.176	75	6939.176	155
6939.177	-1542.5	6939.177	-3095	6939.177	37.5	6939.177	132.5
6939.178	-1562.5	6939.178	-3010	6939.178	-122.5	6939.178	10
6939.179	-1540	6939.179	-3030	6939.179	-135	6939.179	45
6939.18	-1572.5	6939.18	-3002.5	6939.18	-247.5	6939.18	-32.5
6939.181	-1547.5	6939.181	-2947.5	6939.181	-225	6939.181	-90
6939.182	-1512.5	6939.182	-2895	6939.182	-232.5	6939.182	-77.5
6939.183	-1490	6939.183	-2897.5	6939.183	-232.5	6939.183	-122.5
6939.184	-1430	6939.184	-2825	6939.184	-200	6939.184	-47.5
6939.185	-1347.5	6939.185	-2657.5	6939.185	-95	6939.185	47.5
6939.186	-1332.5	6939.186	-2675	6939.186	-2.5	6939.186	162.5
6939.187	-1230	6939.187	-2610	6939.187	105	6939.187	335
6939.188	-1195	6939.188	-2540	6939.188	252.5	6939.188	457.5
6939.189	-1180	6939.189	-2592.5	6939.189	332.5	6939.189	550
6939.19	-1110	6939.19	-2492.5	6939.19	465	6939.19	667.5
6939.191	-1065	6939.191	-2357.5	6939.191	612.5	6939.191	822.5
6939.192	-1017.5	6939.192	-2317.5	6939.192	647.5	6939.192	850
6939.193	-947.5	6939.193	-2180	6939.193	787.5	6939.193	987.5
6939.194	-915	6939.194	-2117.5	6939.194	847.5	6939.194	1062.5
6939.195	-907.5	6939.195	-2065	6939.195	860	6939.195	1097.5
6939.196	-892.5	6939.196	-1985	6939.196	815	6939.196	1100
6939.197	-812.5	6939.197	-1982.5	6939.197	817.5	6939.197	1087.5
6939.198	-827.5	6939.198	-1955	6939.198	695	6939.198	1070
6939.199	-777.5	6939.199	-1905	6939.199	697.5	6939.199	1087.5
6939.2	-820	6939.2	-1907.5	6939.2	562.5	6939.2	987.5
6939.201	-847.5	6939.201	-1892.5	6939.201	482.5	6939.201	755
6939.202	-992.5	6939.202	-2045	6939.202	537.5	6939.202	627.5
6939.203	402.5	6939.203	-847.5	6939.203	2232.5	6939.203	1912.5
6939.204	1777.5	6939.204	-120	6939.204	4105	6939.204	3480
6939.205	3692.5	6939.205	800	6939.205	6920	6939.205	6082.5
6939.206	4700	6939.206	382.5	6939.206	8810	6939.206	8125
6939.207	9270	6939.207	3780	6939.207	13297.5	6939.207	13127.5
6939.208	16060	6939.208	10935	6939.208	18402.5	6939.208	19325
6939.209	27897.5	6939.209	25295	6939.209	25625	6939.209	29062.5
6939.21	41052.5	6939.21	42295	6939.21	34135	6939.21	40137.5
6939.211	50607.5	6939.211	54837.5	6939.211	38340	6939.211	48252.5
6939.212	58322.5	6939.212	62470	6939.212	42720	6939.212	54865
6939.213	66777.5	6939.213	68905	6939.213	48772.5	6939.213	61735
6939.214	76677.5	6939.214	79912.5	6939.214	45055	6939.214	64985
6939.215	30930	6939.215	60617.5	6939.215	-11190	6939.215	43600
6939.216	15902.5	6939.216	-17215	6939.216	-4627.5	6939.216	44110
6939.217	14140	6939.217	-2415	6939.217	480	6939.217	36932.5
6939.218	1410	6939.218	4930	6939.218	2305	6939.218	13900
6939.219	695	6939.219	7247.5	6939.219	2587.5	6939.219	6995
6939.22	1057.5	6939.22	9042.5	6939.22	2940	6939.22	6565
6939.221	2675	6939.221	10787.5	6939.221	3595	6939.221	7307.5
6939.222	2462.5	6939.222	11185	6939.222	3270	6939.222	6607.5
6939.223	3075	6939.223	11672.5	6939.223	2647.5	6939.223	6512.5
6939.224	4385	6939.224	12975	6939.224	2710	6939.224	7437.5
6939.225	5262.5	6939.225	14000	6939.225	2402.5	6939.225	8077.5
6939.226	5410	6939.226	14550	6939.226	1900	6939.226	8262.5
6939.227	5685	6939.227	15332.5	6939.227	1602.5	6939.227	8607.5
6939.228	6472.5	6939.228	16742.5	6939.228	1730	6939.228	9522.5
6939.229	7762.5	6939.229	18152.5	6939.229	2187.5	6939.229	10982.5
6939.23	8992.5	6939.23	19225	6939.23	2720	6939.23	12522.5
6939.231	10265	6939.231	20162.5	6939.231	3340	6939.231	14237.5
6939.232	11512.5	6939.232	20727.5	6939.232	4022.5	6939.232	15907.5
6939.233	12762.5	6939.233	20920	6939.233	4812.5	6939.233	17562.5
6939.234	13877.5	6939.234	20900	6939.234	5680	6939.234	19045
6939.235	14840	6939.235	20785	6939.235	6537.5	6939.235	20287.5
6939.236	15622.5	6939.236	20302.5	6939.236	7365	6939.236	21187.5
6939.237	16240	6939.237	19840	6939.237	8215	6939.237	21927.5
6939.238	16610	6939.238	19320	6939.238	8855	6939.238	22402.5
6939.239	16840	6939.239	18772.5	6939.239	9495	6939.239	22657.5
6939.24	16920	6939.24	18140	6939.24	9907.5	6939.24	22747.5
6939.241	16917.5	6939.241	17512.5	6939.241	10155	6939.241	22737.5
6939.242	16760	6939.242	16920	6939.242	10397.5	6939.242	22650
6939.243	16522.5	6939.243	16265	6939.243	10360	6939.243	22342.5
6939.244	16232.5	6939.244	15765	6939.244	10402.5	6939.244	22090
6939.245	15857.5	6939.245	15062.5	6939.245	10277.5	6939.245	21670
6939.246	15462.5	6939.246	14405	6939.246	10237.5	6939.246	21257.5
6939.247	15065	6939.247	13792.5	6939.247	10022.5	6939.247	20827.5
6939.248	14647.5	6939.248	13205	6939.248	9872.5	6939.248	20400
6939.249	14185	6939.249	12575	6939.249	9525	6939.249	19885
6939.25	13742.5	6939.25	12007.5	6939.25	9305	6939.25	19370
6939.251	13252.5	6939.251	11537.5	6939.251	8960	6939.251	18865
6939.252	12755	6939.252	10985	6939.252	8567.5	6939.252	18327.5
6939.253	12307.5	6939.253	10440	6939.253	8255	6939.253	17775
6939.254	11817.5	6939.254	9940	6939.254	7857.5	6939.254	17260
6939.255	11370	6939.255	9392.5	6939.255	7427.5	6939.255	16672.5
6939.256	10895	6939.256	8857.5	6939.256	6922.5	6939.256	16087.5
6939.257	10450	6939.257	8502.5	6939.257	6450	6939.257	15497.5
6939.258	10022.5	6939.258	7915	6939.258	5987.5	6939.258	14925
6939.259	9600	6939.259	7472.5	6939.259	5602.5	6939.259	14422.5
6939.26	9167.5	6939.26	7030	6939.26	5127.5	6939.26	13857.5
6939.261	8787.5	6939.261	6585	6939.261	4652.5	6939.261	13355
6939.262	8420	6939.262	6317.5	6939.262	4325	6939.262	12852.5
6939.263	8035	6939.263	5937.5	6939.263	3952.5	6939.263	12370
6939.264	7712.5	6939.264	5582.5	6939.264	3687.5	6939.264	11977.5
6939.265	7365	6939.265	5265	6939.265	3387.5	6939.265	11592.5
6939.266	7100	6939.266	4932.5	6939.266	3237.5	6939.266	11227.5
6939.267	6790	6939.267	4535	6939.267	3065	6939.267	10882.5
6939.268	6530	6939.268	4365	6939.268	2945	6939.268	10512.5
6939.269	6265	6939.269	3977.5	6939.269	2762.5	6939.269	10167.5
6939.27	5975	6939.27	3827.5	6939.27	2672.5	6939.27	9830
6939.271	5737.5	6939.271	3532.5	6939.271	2505	6939.271	9520
6939.272	5470	6939.272	3342.5	6939.272	2400	6939.272	9115
6939.273	5210	6939.273	3087.5	6939.273	2242.5	6939.273	8760
6939.274	4990	6939.274	2927.5	6939.274	2080	6939.274	8292.5
6939.275	4725	6939.275	2645	6939.275	1852.5	6939.275	7762.5
6939.276	4490	6939.276	2327.5	6939.276	1620	6939.276	7250
6939.277	4260	6939.277	2030	6939.277	1427.5	6939.277	6707.5
6939.278	3997.5	6939.278	1737.5	6939.278	1155	6939.278	6122.5
6939.279	3755	6939.279	1455	6939.279	1005	6939.279	5550
6939.28	3532.5	6939.28	1137.5	6939.28	725	6939.28	4985
6939.281	3317.5	6939.281	922.5	6939.281	492.5	6939.281	4447.5
6939.282	3130	6939.282	740	6939.282	302.5	6939.282	3905
6939.283	2887.5	6939.283	495	6939.283	150	6939.283	3345
6939.284	2705	6939.284	230	6939.284	-10	6939.284	2850
6939.285	2472.5	6939.285	35	6939.285	-100	6939.285	2380
6939.286	2295	6939.286	-245	6939.286	-130	6939.286	1987.5
6939.287	2107.5	6939.287	-345	6939.287	-225	6939.287	1615
6939.288	1907.5	6939.288	-607.5	6939.288	-227.5	6939.288	1205
6939.289	1715	6939.289	-827.5	6939.289	-320	6939.289	832.5
6939.29	1502.5	6939.29	-1117.5	6939.29	-360	6939.29	507.5
6939.291	1270	6939.291	-1252.5	6939.291	-347.5	6939.291	195
6939.292	1075	6939.292	-1457.5	6939.292	-485	6939.292	-207.5
6939.293	877.5	6939.293	-1717.5	6939.293	-520	6939.293	-562.5
6939.294	700	6939.294	-1872.5	6939.294	-655	6939.294	-892.5
6939.295	482.5	6939.295	-2115	6939.295	-825	6939.295	-1272.5
6939.296	310	6939.296	-2430	6939.296	-1035	6939.296	-1612.5
6939.297	45	6939.297	-2662.5	6939.297	-1202.5	6939.297	-2005
6939.298	-177.5	6939.298	-2985	6939.298	-1462.5	6939.298	-2342.5
6939.299	-362.5	6939.299	-3230	6939.299	-1637.5	6939.299	-2772.5
6939.3	-590	6939.3	-3435	6939.3	-1907.5	6939.3	-3047.5
6939.301	-797.5	6939.301	-3627.5	6939.301	-2077.5	6939.301	-3382.5
6939.302	-982.5	6939.302	-3810	6939.302	-2240	6939.302	-3695
6939.303	-1205	6939.303	-4045	6939.303	-2390	6939.303	-3965
6939.304	-1337.5	6939.304	-4230	6939.304	-2517.5	6939.304	-4192.5
6939.305	-1540	6939.305	-4440	6939.305	-2670	6939.305	-4460
6939.306	-1667.5	6939.306	-4600	6939.306	-2697.5	6939.306	-4620
6939.307	-1910	6939.307	-4760	6939.307	-2720	6939.307	-4840
6939.308	-2020	6939.308	-4947.5	6939.308	-2662.5	6939.308	-4967.5
6939.309	-2192.5	6939.309	-5145	6939.309	-2725	6939.309	-5145
6939.31	-2370	6939.31	-5270	6939.31	-2762.5	6939.31	-5265
6939.311	-2547.5	6939.311	-5415	6939.311	-2747.5	6939.311	-5517.5
6939.312	-2665	6939.312	-5492.5	6939.312	-2802.5	6939.312	-5720
6939.313	-2790	6939.313	-5660	6939.313	-2855	6939.313	-5860
6939.314	-2987.5	6939.314	-5857.5	6939.314	-2922.5	6939.314	-6072.5
6939.315	-3110	6939.315	-6055	6939.315	-3070	6939.315	-6300
6939.316	-3307.5	6939.316	-6272.5	6939.316	-3225	6939.316	-6532.5
6939.317	-3427.5	6939.317	-6480	6939.317	-3410	6939.317	-6702.5
6939.318	-3650	6939.318	-6570	6939.318	-3617.5	6939.318	-6950
6939.319	-3760	6939.319	-6647.5	6939.319	-3782.5	6939.319	-7132.5
6939.32	-3940	6939.32	-6787.5	6939.32	-3960	6939.32	-7342.5
6939.321	-4030	6939.321	-6862.5	6939.321	-4120	6939.321	-7512.5
6939.322	-4212.5	6939.322	-6945	6939.322	-4297.5	6939.322	-7710
6939.323	-4277.5	6939.323	-6992.5	6939.323	-4385	6939.323	-7822.5
6939.324	-4417.5	6939.324	-7142.5	6939.324	-4455	6939.324	-7995
6939.325	-4522.5	6939.325	-7262.5	6939.325	-4485	6939.325	-8080
6939.326	-4600	6939.326	-7245	6939.326	-4522.5	6939.326	-8160
6939.327	-4707.5	6939.327	-7322.5	6939.327	-4512.5	6939.327	-8230
6939.328	-4790	6939.328	-7332.5	6939.328	-4400	6939.328	-8297.5
6939.329	-4827.5	6939.329	-7477.5	6939.329	-4387.5	6939.329	-8310
6939.33	-4902.5	6939.33	-7417.5	6939.33	-4370	6939.33	-8380
6939.331	-5005	6939.331	-7432.5	6939.331	-4327.5	6939.331	-8412.5
6939.332	-5047.5	6939.332	-7402.5	6939.332	-4292.5	6939.332	-8417.5
6939.333	-5095	6939.333	-7470	6939.333	-4375	6939.333	-8552.5
6939.334	-5182.5	6939.334	-7435	6939.334	-4347.5	6939.334	-8527.5
6939.335	-5242.5	6939.335	-7445	6939.335	-4420	6939.335	-8692.5
6939.336	-5337.5	6939.336	-7587.5	6939.336	-4535	6939.336	-8765
6939.337	-5365	6939.337	-7555	6939.337	-4535	6939.337	-8815
6939.338	-5455	6939.338	-7477.5	6939.338	-4787.5	6939.338	-8895
6939.339	-5525	6939.339	-7505	6939.339	-4855	6939.339	-9015
6939.34	-5545	6939.34	-7505	6939.34	-5000	6939.34	-9162.5
6939.341	-5677.5	6939.341	-7457.5	6939.341	-5097.5	6939.341	-9222.5
6939.342	-5687.5	6939.342	-7397.5	6939.342	-5217.5	6939.342	-9290
6939.343	-5695	6939.343	-7407.5	6939.343	-5292.5	6939.343	-9355
6939.344	-5715	6939.344	-7355	6939.344	-5270	6939.344	-9390
6939.345	-5742.5	6939.345	-7312.5	6939.345	-5262.5	6939.345	-9407.5
6939.346	-5755	6939.346	-7335	6939.346	-5217.5	6939.346	-9365
6939.347	-5727.5	6939.347	-7380	6939.347	-5115	6939.347	-9362.5
6939.348	-5742.5	6939.348	-7172.5	6939.348	-4997.5	6939.348	-9300
6939.349	-5785	6939.349	-7217.5	6939.349	-4895	6939.349	-9302.5
6939.35	-5730	6939.35	-7115	6939.35	-4852.5	6939.35	-9230
6939.351	-5737.5	6939.351	-7015	6939.351	-4745	6939.351	-9212.5
6939.352	-5720	6939.352	-6907.5	6939.352	-4685	6939.352	-9172.5
6939.353	-5722.5	6939.353	-6875	6939.353	-4680	6939.353	-9210
6939.354	-5737.5	6939.354	-6822.5	6939.354	-4720	6939.354	-9182.5
6939.355	-5755	6939.355	-6702.5	6939.355	-4682.5	6939.355	-9197.5
6939.356	-5790	6939.356	-6690	6939.356	-4777.5	6939.356	-9255
6939.357	-5770	6939.357	-6665	6939.357	-4860	6939.357	-9365
6939.358	-5767.5	6939.358	-6580	6939.358	-4997.5	6939.358	-9327.5
6939.359	-5762.5	6939.359	-6470	6939.359	-5062.5	6939.359	-9385
6939.36	-5735	6939.36	-6390	6939.36	-5080	6939.36	-9392.5
6939.361	-5770	6939.361	-6320	6939.361	-5187.5	6939.361	-9450
6939.362	-5760	6939.362	-6262.5	6939.362	-5202.5	6939.362	-9405
6939.363	-5735	6939.363	-6132.5	6939.363	-5227.5	6939.363	-9412.5
6939.364	-5750	6939.364	-6067.5	6939.364	-5200	6939.364	-9435
6939.365	-5690	6939.365	-6045	6939.365	-5162.5	6939.365	-9385
6939.366	-5655	6939.366	-5897.5	6939.366	-5095	6939.366	-9325
6939.367	-5600	6939.367	-5882.5	6939.367	-4930	6939.367	-9207.5
6939.368	-5555	6939.368	-5842.5	6939.368	-4755	6939.368	-9162.5
6939.369	-5552.5	6939.369	-5742.5	6939.369	-4700	6939.369	-9127.5
6939.37	-5515	6939.37	-5465	6939.37	-4597.5	6939.37	-9010
6939.371	-5465	6939.371	-5437.5	6939.371	-4447.5	6939.371	-8992.5
6939.372	-5432.5	6939.372	-5252.5	6939.372	-4415	6939.372	-8922.5
6939.373	-5410	6939.373	-5110	6939.373	-4325	6939.373	-8862.5
6939.374	-5382.5	6939.374	-5067.5	6939.374	-4315	6939.374	-8840
6939.375	-5405	6939.375	-5095	6939.375	-4380	6939.375	-8837.5
6939.376	-5385	6939.376	-4990	6939.376	-4340	6939.376	-8857.5
6939.377	-5352.5	6939.377	-4842.5	6939.377	-4412.5	6939.377	-8890
6939.378	-5335	6939.378	-4817.5	6939.378	-4452.5	6939.378	-8880
6939.379	-5347.5	6939.379	-4755	6939.379	-4565	6939.379	-8930
6939.38	-5307.5	6939.38	-4745	6939.38	-4607.5	6939.38	-8952.5
6939.381	-5267.5	6939.381	-4700	6939.381	-4695	6939.381	-8927.5
6939.382	-5297.5	6939.382	-4590	6939.382	-4705	6939.382	-8850
6939.383	-5267.5	6939.383	-4445	6939.383	-4735	6939.383	-8897.5
6939.384	-5217.5	6939.384	-4415	6939.384	-4695	6939.384	-8877.5
6939.385	-5182.5	6939.385	-4255	6939.385	-4645	6939.385	-8810
6939.386	-5140	6939.386	-4190	6939.386	-4510	6939.386	-8752.5
6939.387	-5067.5	6939.387	-4175	6939.387	-4375	6939.387	-8697.5
6939.388	-5080	6939.388	-4085	6939.388	-4195	6939.388	-8580
6939.389	-5025	6939.389	-4017.5	6939.389	-4057.5	6939.389	-8497.5
6939.39	-4967.5	6939.39	-3915	6939.39	-3987.5	6939.39	-8412.5
6939.391	-4945	6939.391	-3832.5	6939.391	-3797.5	6939.391	-8422.5
6939.392	-4947.5	6939.392	-3780	6939.392	-3720	6939.392	-8365
6939.393	-4910	6939.393	-3660	6939.393	-3632.5	6939.393	-8295
6939.394	-4860	6939.394	-3562.5	6939.394	-3620	6939.394	-8237.5
6939.395	-4847.5	6939.395	-3507.5	6939.395	-3645	6939.395	-8202.5
6939.396	-4835	6939.396	-3467.5	6939.396	-3697.5	6939.396	-8230
6939.397	-4790	6939.397	-3415	6939.397	-3680	6939.397	-8245
6939.398	-4797.5	6939.398	-3335	6939.398	-3815	6939.398	-8310
6939.399	-4765	6939.399	-3220	6939.399	-3860	6939.399	-8327.5
6939.4	-4765	6939.4	-3155	6939.4	-3915	6939.4	-8275
6939.401	-4775	6939.401	-3162.5	6939.401	-3970	6939.401	-8332.5
6939.402	-4752.5	6939.402	-2972.5	6939.402	-3980	6939.402	-8315
6939.403	-4735	6939.403	-2950	6939.403	-3985	6939.403	-8255
6939.404	-4700	6939.404	-2820	6939.404	-3952.5	6939.404	-8200
6939.405	-4680	6939.405	-2685	6939.405	-3907.5	6939.405	-8115
6939.406	-4640	6939.406	-2587.5	6939.406	-3887.5	6939.406	-8062.5
6939.407	-4587.5	6939.407	-2497.5	6939.407	-3762.5	6939.407	-8082.5
6939.408	-4527.5	6939.408	-2540	6939.408	-3615	6939.408	-7967.5
6939.409	-4500	6939.409	-2477.5	6939.409	-3485	6939.409	-7820
6939.41	-4445	6939.41	-2340	6939.41	-3350	6939.41	-7810
6939.411	-4432.5	6939.411	-2355	6939.411	-3290	6939.411	-7750
6939.412	-4392.5	6939.412	-2222.5	6939.412	-3192.5	6939.412	-7667.5
6939.413	-4432.5	6939.413	-2172.5	6939.413	-3110	6939.413	-7617.5
6939.414	-4395	6939.414	-2122.5	6939.414	-3077.5	6939.414	-7550
6939.415	-4370	6939.415	-2085	6939.415	-3042.5	6939.415	-7562.5
6939.416	-4342.5	6939.416	-2030	6939.416	-3082.5	6939.416	-7570
6939.417	-4330	6939.417	-1967.5	6939.417	-3070	6939.417	-7537.5
6939.418	-4297.5	6939.418	-1877.5	6939.418	-3185	6939.418	-7502.5
6939.419	-4317.5	6939.419	-1870	6939.419	-3290	6939.419	-7585
6939.42	-4320	6939.42	-1782.5	6939.42	-3372.5	6939.42	-7522.5
6939.421	-4297.5	6939.421	-1710	6939.421	-3437.5	6939.421	-7515
6939.422	-4250	6939.422	-1640	6939.422	-3445	6939.422	-7515
6939.423	-4260	6939.423	-1595	6939.423	-3450	6939.423	-7467.5
6939.424	-4227.5	6939.424	-1507.5	6939.424	-3477.5	6939.424	-7415
6939.425	-4195	6939.425	-1345	6939.425	-3447.5	6939.425	-7342.5
6939.426	-4147.5	6939.426	-1357.5	6939.426	-3327.5	6939.426	-7242.5
6939.427	-4092.5	6939.427	-1220	6939.427	-3172.5	6939.427	-7135
6939.428	-4032.5	6939.428	-1145	6939.428	-3002.5	6939.428	-7042.5
6939.429	-4000	6939.429	-985	6939.429	-2952.5	6939.429	-6902.5
6939.43	-3970	6939.43	-1010	6939.43	-2895	6939.43	-6892.5
6939.431	-3927.5	6939.431	-877.5	6939.431	-2780	6939.431	-6720
6939.432	-3937.5	6939.432	-740	6939.432	-2677.5	6939.432	-6622.5
6939.433	-3872.5	6939.433	-700	6939.433	-2650	6939.433	-6545
6939.434	-3865	6939.434	-572.5	6939.434	-2585	6939.434	-6530
6939.435	-3832.5	6939.435	-550	6939.435	-2562.5	6939.435	-6452.5
6939.436	-3830	6939.436	-480	6939.436	-2612.5	6939.436	-6422.5
6939.437	-3817.5	6939.437	-420	6939.437	-2695	6939.437	-6407.5
6939.438	-3787.5	6939.438	-492.5	6939.438	-2820	6939.438	-6417.5
6939.439	-3757.5	6939.439	-377.5	6939.439	-2850	6939.439	-6422.5
6939.44	-3757.5	6939.44	-285	6939.44	-2927.5	6939.44	-6392.5
6939.441	-3737.5	6939.441	-255	6939.441	-3012.5	6939.441	-6395
6939.442	-3667.5	6939.442	-122.5	6939.442	-3002.5	6939.442	-6282.5
6939.443	-3650	6939.443	-92.5	6939.443	-3087.5	6939.443	-6225
6939.444	-3590	6939.444	-130	6939.444	-3075	6939.444	-6167.5
6939.445	-3530	6939.445	-5	6939.445	-2990	6939.445	-6100
6939.446	-3480	6939.446	122.5	6939.446	-2862.5	6939.446	-5942.5
6939.447	-3442.5	6939.447	40	6939.447	-2767.5	6939.447	-5840
6939.448	-3382.5	6939.448	162.5	6939.448	-2685	6939.448	-5682.5
6939.449	-3320	6939.449	250	6939.449	-2565	6939.449	-5625
6939.45	-3245	6939.45	280	6939.45	-2435	6939.45	-5462.5
6939.451	-3177.5	6939.451	417.5	6939.451	-2332.5	6939.451	-5375
6939.452	-3152.5	6939.452	507.5	6939.452	-2302.5	6939.452	-5312.5
6939.453	-3107.5	6939.453	610	6939.453	-2180	6939.453	-5197.5
6939.454	-3090	6939.454	687.5	6939.454	-2162.5	6939.454	-5070
6939.455	-3010	6939.455	802.5	6939.455	-2160	6939.455	-5055
6939.456	-2985	6939.456	712.5	6939.456	-2205	6939.456	-4967.5
6939.457	-3002.5	6939.457	680	6939.457	-2345	6939.457	-4977.5
6939.458	-2940	6939.458	705	6939.458	-2355	6939.458	-4907.5
6939.459	-2920	6939.459	700	6939.459	-2432.5	6939.459	-4887.5
6939.46	-2885	6939.46	780	6939.46	-2502.5	6939.46	-4810
6939.461	-2857.5	6939.461	807.5	6939.461	-2635	6939.461	-4752.5
6939.462	-2865	6939.462	762.5	6939.462	-2637.5	6939.462	-4630
6939.463	-2815	6939.463	907.5	6939.463	-2635	6939.463	-4590
6939.464	-2760	6939.464	837.5	6939.464	-2747.5	6939.464	-4480
6939.465	-2697.5	6939.465	942.5	6939.465	-2652.5	6939.465	-4352.5
6939.466	-2627.5	6939.466	927.5	6939.466	-2635	6939.466	-4215
6939.467	-2587.5	6939.467	937.5	6939.467	-2532.5	6939.467	-4020
6939.468	-2532.5	6939.468	1017.5	6939.468	-2367.5	6939.468	-3840
6939.469	-2480	6939.469	1042.5	6939.469	-2275	6939.469	-3650
6939.47	-2460	6939.47	1017.5	6939.47	-2182.5	6939.47	-3497.5
6939.471	-2420	6939.471	1097.5	6939.471	-2117.5	6939.471	-3292.5
6939.472	-2407.5	6939.472	1172.5	6939.472	-2097.5	6939.472	-3192.5
6939.473	-2335	6939.473	1242.5	6939.473	-2010	6939.473	-2997.5
6939.474	-2335	6939.474	1192.5	6939.474	-2040	6939.474	-2867.5
6939.475	-2297.5	6939.475	1230	6939.475	-2050	6939.475	-2732.5
6939.476	-2302.5	6939.476	1252.5	6939.476	-2130	6939.476	-2632.5
6939.477	-2272.5	6939.477	1007.5	6939.477	-2270	6939.477	-2570
6939.478	-2245	6939.478	1060	6939.478	-2372.5	6939.478	-2510
6939.479	-2235	6939.479	1062.5	6939.479	-2462.5	6939.479	-2420
6939.48	-2257.5	6939.48	1125	6939.48	-2577.5	6939.48	-2412.5
6939.481	-2210	6939.481	1095	6939.481	-2692.5	6939.481	-2355
6939.482	-2225	6939.482	1085	6939.482	-2747.5	6939.482	-2275
6939.483	-2155	6939.483	1075	6939.483	-2792.5	6939.483	-2142.5
6939.484	-2135	6939.484	1070	6939.484	-2797.5	6939.484	-2095
6939.485	-2135	6939.485	1192.5	6939.485	-2805	6939.485	-2007.5
6939.486	-2050	6939.486	1127.5	6939.486	-2725	6939.486	-1775
6939.487	-2037.5	6939.487	1095	6939.487	-2622.5	6939.487	-1747.5
6939.488	-1987.5	6939.488	1127.5	6939.488	-2492.5	6939.488	-1570
6939.489	-1970	6939.489	1225	6939.489	-2442.5	6939.489	-1445
6939.49	-1907.5	6939.49	1100	6939.49	-2370	6939.49	-1300
6939.491	-1910	6939.491	1155	6939.491	-2275	6939.491	-1217.5
6939.492	-1847.5	6939.492	1252.5	6939.492	-2187.5	6939.492	-1107.5
6939.493	-1845	6939.493	1247.5	6939.493	-2127.5	6939.493	-1032.5
6939.494	-1830	6939.494	1215	6939.494	-2135	6939.494	-1022.5
6939.495	-1812.5	6939.495	1247.5	6939.495	-2182.5	6939.495	-960
6939.496	-1797.5	6939.496	1220	6939.496	-2225	6939.496	-955
6939.497	-1772.5	6939.497	1162.5	6939.497	-2327.5	6939.497	-920
6939.498	-1812.5	6939.498	1047.5	6939.498	-2370	6939.498	-965
6939.499	-1762.5	6939.499	1132.5	6939.499	-2452.5	6939.499	-947.5
6939.5	-1820	6939.5	1087.5	6939.5	-2512.5	6939.5	-980
6939.501	-1770	6939.501	1027.5	6939.501	-2637.5	6939.501	-935
6939.502	-1755	6939.502	1105	6939.502	-2657.5	6939.502	-950
6939.503	-1750	6939.503	1072.5	6939.503	-2687.5	6939.503	-835
6939.504	-1680	6939.504	1170	6939.504	-2697.5	6939.504	-900
6939.505	-1687.5	6939.505	1100	6939.505	-2657.5	6939.505	-772.5
6939.506	-1622.5	6939.506	1140	6939.506	-2560	6939.506	-710
6939.507	-1602.5	6939.507	1125	6939.507	-2385	6939.507	-660
6939.508	-1572.5	6939.508	1140	6939.508	-2320	6939.508	-567.5
6939.509	-1527.5	6939.509	1135	6939.509	-2242.5	6939.509	-570
6939.51	-1510	6939.51	1092.5	6939.51	-2125	6939.51	-447.5
6939.511	-1472.5	6939.511	1105	6939.511	-1977.5	6939.511	-452.5
6939.512	-1502.5	6939.512	1067.5	6939.512	-1932.5	6939.512	-410
6939.513	-1430	6939.513	1117.5	6939.513	-1882.5	6939.513	-385
6939.514	-1432.5	6939.514	1165	6939.514	-1875	6939.514	-372.5
6939.515	-1407.5	6939.515	1100	6939.515	-1825	6939.515	-395
6939.516	-1437.5	6939.516	1010	6939.516	-1875	6939.516	-317.5
6939.517	-1357.5	6939.517	1065	6939.517	-1870	6939.517	-367.5
6939.518	-1392.5	6939.518	997.5	6939.518	-2020	6939.518	-442.5
6939.519	-1355	6939.519	975	6939.519	-2055	6939.519	-445
6939.52	-1362.5	6939.52	957.5	6939.52	-2075	6939.52	-515
6939.521	-1327.5	6939.521	997.5	6939.521	-2205	6939.521	-587.5
6939.522	-1332.5	6939.522	1010	6939.522	-2205	6939.522	-585
6939.523	-1332.5	6939.523	957.5	6939.523	-2212.5	6939.523	-625
6939.524	-1320	6939.524	887.5	6939.524	-2185	6939.524	-610
6939.525	-1305	6939.525	872.5	6939.525	-2115	6939.525	-555
6939.526	-1265	6939.526	992.5	6939.526	-1980	6939.526	-532.5
6939.527	-1225	6939.527	910	6939.527	-1890	6939.527	-482.5
6939.528	-1172.5	6939.528	972.5	6939.528	-1662.5	6939.528	-472.5
6939.529	-1170	6939.529	892.5	6939.529	-1552.5	6939.529	-490
6939.53	-1132.5	6939.53	982.5	6939.53	-1420	6939.53	-427.5
6939.531	-1102.5	6939.531	895	6939.531	-1337.5	6939.531	-355
6939.532	-1140	6939.532	935	6939.532	-1227.5	6939.532	-382.5
6939.533	-1097.5	6939.533	1017.5	6939.533	-1170	6939.533	-352.5
6939.534	-1060	6939.534	895	6939.534	-1075	6939.534	-365
6939.535	-1045	6939.535	815	6939.535	-1042.5	6939.535	-402.5
6939.536	-1062.5	6939.536	812.5	6939.536	-1047.5	6939.536	-425
6939.537	-1097.5	6939.537	707.5	6939.537	-1145	6939.537	-432.5
6939.538	-1065	6939.538	730	6939.538	-1130	6939.538	-512.5
6939.539	-1110	6939.539	660	6939.539	-1195	6939.539	-530
6939.54	-1080	6939.54	600	6939.54	-1247.5	6939.54	-575
6939.541	-1077.5	6939.541	647.5	6939.541	-1295	6939.541	-662.5
6939.542	-1107.5	6939.542	572.5	6939.542	-1332.5	6939.542	-720
6939.543	-1070	6939.543	640	6939.543	-1345	6939.543	-705
6939.544	-1027.5	6939.544	655	6939.544	-1317.5	6939.544	-752.5
6939.545	-1000	6939.545	585	6939.545	-1240	6939.545	-730
6939.546	-935	6939.546	525	6939.546	-1092.5	6939.546	-720
6939.547	-977.5	6939.547	582.5	6939.547	-1025	6939.547	-592.5
6939.548	-915	6939.548	547.5	6939.548	-827.5	6939.548	-592.5
6939.549	-905	6939.549	550	6939.549	-730	6939.549	-587.5
6939.55	-907.5	6939.55	512.5	6939.55	-547.5	6939.55	-547.5
6939.551	-855	6939.551	577.5	6939.551	-432.5	6939.551	-472.5
6939.552	-792.5	6939.552	637.5	6939.552	-305	6939.552	-467.5
6939.553	-857.5	6939.553	577.5	6939.553	-212.5	6939.553	-410
6939.554	-827.5	6939.554	610	6939.554	-192.5	6939.554	-417.5
6939.555	-810	6939.555	565	6939.555	-167.5	6939.555	-445
6939.556	-837.5	6939.556	500	6939.556	-157.5	6939.556	-565
6939.557	-797.5	6939.557	425	6939.557	-197.5	6939.557	-547.5
6939.558	-832.5	6939.558	345	6939.558	-290	6939.558	-582.5
6939.559	-852.5	6939.559	357.5	6939.559	-345	6939.559	-655
6939.56	-852.5	6939.56	312.5	6939.56	-417.5	6939.56	-715
6939.561	-897.5	6939.561	302.5	6939.561	-475	6939.561	-792.5
6939.562	-865	6939.562	310	6939.562	-402.5	6939.562	-800
6939.563	-830	6939.563	315	6939.563	-505	6939.563	-802.5
6939.564	-820	6939.564	307.5	6939.564	-472.5	6939.564	-860
6939.565	-807.5	6939.565	360	6939.565	-395	6939.565	-757.5
6939.566	-820	6939.566	320	6939.566	-220	6939.566	-725
6939.567	-777.5	6939.567	355	6939.567	-160	6939.567	-770
6939.568	-722.5	6939.568	290	6939.568	-25	6939.568	-670
6939.569	-712.5	6939.569	342.5	6939.569	107.5	6939.569	-602.5
6939.57	-720	6939.57	302.5	6939.57	195	6939.57	-562.5
6939.571	-695	6939.571	332.5	6939.571	347.5	6939.571	-452.5
6939.572	-630	6939.572	347.5	6939.572	417.5	6939.572	-455
6939.573	-642.5	6939.573	327.5	6939.573	480	6939.573	-437.5
6939.574	-612.5	6939.574	342.5	6939.574	547.5	6939.574	-402.5
6939.575	-627.5	6939.575	292.5	6939.575	552.5	6939.575	-417.5
6939.576	-637.5	6939.576	202.5	6939.576	530	6939.576	-490
6939.577	-680	6939.577	202.5	6939.577	505	6939.577	-492.5
6939.578	-652.5	6939.578	110	6939.578	405	6939.578	-605
6939.579	-675	6939.579	95	6939.579	277.5	6939.579	-615
6939.58	-687.5	6939.58	85	6939.58	255	6939.58	-667.5
6939.581	-702.5	6939.581	100	6939.581	140	6939.581	-680
6939.582	-680	6939.582	57.5	6939.582	175	6939.582	-695
6939.583	-672.5	6939.583	35	6939.583	150	6939.583	-750
6939.584	-672.5	6939.584	-27.5	6939.584	150	6939.584	-737.5
6939.585	-672.5	6939.585	35	6939.585	157.5	6939.585	-720
6939.586	-625	6939.586	-60	6939.586	257.5	6939.586	-690
6939.587	-602.5	6939.587	-80	6939.587	402.5	6939.587	-617.5
6939.588	-575	6939.588	-115	6939.588	515	6939.588	-552.5
6939.589	-572.5	6939.589	-155	6939.589	587.5	6939.589	-585
6939.59	-542.5	6939.59	-97.5	6939.59	722.5	6939.59	-470
6939.591	-537.5	6939.591	-147.5	6939.591	832.5	6939.591	-492.5
6939.592	-527.5	6939.592	-65	6939.592	877.5	6939.592	-455
6939.593	-532.5	6939.593	-115	6939.593	950	6939.593	-410
6939.594	-547.5	6939.594	-210	6939.594	1010	6939.594	-395
6939.595	-527.5	6939.595	-165	6939.595	957.5	6939.595	-415
6939.596	-525	6939.596	-205	6939.596	962.5	6939.596	-420
6939.597	-517.5	6939.597	-227.5	6939.597	895	6939.597	-502.5
6939.598	-545	6939.598	-247.5	6939.598	805	6939.598	-520
6939.599	-505	6939.599	-305	6939.599	685	6939.599	-582.5
6939.6	-577.5	6939.6	-322.5	6939.6	620	6939.6	-592.5
6939.601	-577.5	6939.601	-342.5	6939.601	510	6939.601	-655
6939.602	-370	6939.602	-155	6939.602	615	6939.602	-520
6939.603	-85	6939.603	40	6939.603	917.5	6939.603	-240
6939.604	662.5	6939.604	687.5	6939.604	1577.5	6939.604	477.5
6939.605	1330	6939.605	1272.5	6939.605	2227.5	6939.605	1097.5
6939.606	2122.5	6939.606	1965	6939.606	2985	6939.606	1917.5
6939.607	2810	6939.607	2565	6939.607	3772.5	6939.607	2637.5
6939.608	3377.5	6939.608	3010	6939.608	4365	6939.608	3180
6939.609	4227.5	6939.609	3675	6939.609	5210	6939.609	4090
6939.61	3360	6939.61	2950	6939.61	4645	6939.61	3377.5
6939.611	3282.5	6939.611	2822.5	6939.611	4692.5	6939.611	3312.5
6939.612	3640	6939.612	3085	6939.612	5065	6939.612	3680
6939.613	2875	6939.613	2402.5	6939.613	4480	6939.613	2950
6939.614	2645	6939.614	2140	6939.614	4242.5	6939.614	2715
6939.615	1415	6939.615	1022.5	6939.615	3272.5	6939.615	1560
6939.616	277.5	6939.616	-125	6939.616	2247.5	6939.616	460
6939.617	160	6939.617	-220	6939.617	2037.5	6939.617	307.5
6939.618	-532.5	6939.618	-845	6939.618	1430	6939.618	-407.5
6939.619	-1455	6939.619	-1752.5	6939.619	507.5	6939.619	-1330
6939.62	-1665	6939.62	-1890	6939.62	172.5	6939.62	-1627.5
6939.621	-2247.5	6939.621	-2337.5	6939.621	-350	6939.621	-2202.5
6939.622	-3160	6939.622	-3095	6939.622	-1215	6939.622	-3112.5
6939.623	-3657.5	6939.623	-3552.5	6939.623	-1805	6939.623	-3582.5
6939.624	-3705	6939.624	-3555	6939.624	-1852.5	6939.624	-3725
6939.625	-3845	6939.625	-3725	6939.625	-1957.5	6939.625	-3875
6939.626	-3345	6939.626	-3240	6939.626	-1472.5	6939.626	-3372.5
6939.627	-2950	6939.627	-2820	6939.627	-1007.5	6939.627	-3025
6939.628	-2945	6939.628	-2817.5	6939.628	-927.5	6939.628	-2925
6939.629	-3257.5	6939.629	-3035	6939.629	-1130	6939.629	-3230
6939.63	-3475	6939.63	-3217.5	6939.63	-1250	6939.63	-3392.5
6939.631	-3647.5	6939.631	-3267.5	6939.631	-1297.5	6939.631	-3555
6939.632	-3730	6939.632	-3387.5	6939.632	-1347.5	6939.632	-3565
6939.633	-3782.5	6939.633	-3335	6939.633	-1357.5	6939.633	-3615
6939.634	-3690	6939.634	-3207.5	6939.634	-1292.5	6939.634	-3557.5
6939.635	-3635	6939.635	-3200	6939.635	-1260	6939.635	-3472.5
6939.636	-3522.5	6939.636	-3070	6939.636	-1175	6939.636	-3397.5
6939.637	-3377.5	6939.637	-2972.5	6939.637	-1147.5	6939.637	-3295
6939.638	-3340	6939.638	-2902.5	6939.638	-1145	6939.638	-3287.5
6939.639	-3220	6939.639	-2782.5	6939.639	-1157.5	6939.639	-3235
6939.64	-3140	6939.64	-2702.5	6939.64	-1150	6939.64	-3177.5
6939.641	-3070	6939.641	-2527.5	6939.641	-1100	6939.641	-3087.5
6939.642	-2920	6939.642	-2465	6939.642	-1032.5	6939.642	-3082.5
6939.643	-2880	6939.643	-2382.5	6939.643	-1017.5	6939.643	-3010
6939.644	-2765	6939.644	-2162.5	6939.644	-935	6939.644	-2912.5
6939.645	-2675	6939.645	-2170	6939.645	-817.5	6939.645	-2842.5
6939.646	-2582.5	6939.646	-2050	6939.646	-617.5	6939.646	-2667.5
6939.647	-2515	6939.647	-2092.5	6939.647	-450	6939.647	-2600
6939.648	-2415	6939.648	-1937.5	6939.648	-332.5	6939.648	-2455
6939.649	-2355	6939.649	-1857.5	6939.649	-127.5	6939.649	-2385
6939.65	-2327.5	6939.65	-1725	6939.65	-7.5	6939.65	-2250
6939.651	-2212.5	6939.651	-1597.5	6939.651	150	6939.651	-2182.5
6939.652	-2172.5	6939.652	-1522.5	6939.652	315	6939.652	-2132.5
6939.653	-2122.5	6939.653	-1437.5	6939.653	407.5	6939.653	-2027.5
6939.654	-2092.5	6939.654	-1417.5	6939.654	447.5	6939.654	-1990
6939.655	-2085	6939.655	-1477.5	6939.655	545	6939.655	-1982.5
6939.656	-2032.5	6939.656	-1442.5	6939.656	492.5	6939.656	-1920
6939.657	-1982.5	6939.657	-1475	6939.657	480	6939.657	-1972.5
6939.658	-1945	6939.658	-1450	6939.658	365	6939.658	-1962.5
6939.659	-1907.5	6939.659	-1455	6939.659	375	6939.659	-2007.5
6939.66	-1867.5	6939.66	-1420	6939.66	272.5	6939.66	-2007.5
6939.661	-1872.5	6939.661	-1367.5	6939.661	245	6939.661	-1960
6939.662	-1832.5	6939.662	-1347.5	6939.662	222.5	6939.662	-1950
6939.663	-1802.5	6939.663	-1222.5	6939.663	235	6939.663	-1870
6939.664	-1750	6939.664	-1227.5	6939.664	237.5	6939.664	-1942.5
6939.665	-1707.5	6939.665	-1242.5	6939.665	305	6939.665	-1870
6939.666	-1682.5	6939.666	-1177.5	6939.666	447.5	6939.666	-1805
6939.667	-1630	6939.667	-1152.5	6939.667	500	6939.667	-1747.5
6939.668	-1585	6939.668	-1070	6939.668	680	6939.668	-1565
6939.669	-1545	6939.669	-1042.5	6939.669	785	6939.669	-1520
6939.67	-1495	6939.67	-1042.5	6939.67	950	6939.67	-1460
6939.671	-1440	6939.671	-1002.5	6939.671	1105	6939.671	-1400
6939.672	-1412.5	6939.672	-950	6939.672	1215	6939.672	-1355
6939.673	-1367.5	6939.673	-872.5	6939.673	1280	6939.673	-1250
6939.674	-1297.5	6939.674	-847.5	6939.674	1350	6939.674	-1257.5
6939.675	-1262.5	6939.675	-810	6939.675	1452.5	6939.675	-1185
6939.676	-1235	6939.676	-815	6939.676	1337.5	6939.676	-1227.5
6939.677	-1205	6939.677	-890	6939.677	1317.5	6939.677	-1220
6939.678	-1200	6939.678	-815	6939.678	1260	6939.678	-1172.5
6939.679	-1172.5	6939.679	-772.5	6939.679	1212.5	6939.679	-1232.5
6939.68	-1150	6939.68	-770	6939.68	1122.5	6939.68	-1215
6939.681	-1107.5	6939.681	-717.5	6939.681	1140	6939.681	-1235
6939.682	-1055	6939.682	-660	6939.682	1080	6939.682	-1145
6939.683	-1027.5	6939.683	-637.5	6939.683	1170	6939.683	-1115
6939.684	-967.5	6939.684	-627.5	6939.684	1107.5	6939.684	-1105
6939.685	-895	6939.685	-550	6939.685	1285	6939.685	-995
6939.686	-815	6939.686	-490	6939.686	1365	6939.686	-927.5
6939.687	-755	6939.687	-435	6939.687	1505	6939.687	-862.5
6939.688	-722.5	6939.688	-387.5	6939.688	1612.5	6939.688	-817.5
6939.689	-807.5	6939.689	-422.5	6939.689	1637.5	6939.689	-932.5
6939.69	-972.5	6939.69	-437.5	6939.69	1815	6939.69	-1162.5
6939.691	105	6939.691	430	6939.691	3165	6939.691	-160
6939.692	1367.5	6939.692	1265	6939.692	4940	6939.692	1305
6939.693	3400	6939.693	2392.5	6939.693	7775	6939.693	3747.5
6939.694	4325	6939.694	1932.5	6939.694	9512.5	6939.694	5695
6939.695	7927.5	6939.695	4297.5	6939.695	13187.5	6939.695	9855
6939.696	14030	6939.696	10230	6939.696	17930	6939.696	15635
6939.697	23937.5	6939.697	22172.5	6939.697	23785	6939.697	23657.5
6939.698	37682.5	6939.698	39532.5	6939.698	32507.5	6939.698	35077.5
6939.699	48122.5	6939.699	53435	6939.699	37512.5	6939.699	43735
6939.7	55702.5	6939.7	61965	6939.7	40322.5	6939.7	49947.5
6939.701	63400	6939.701	67370	6939.701	47642.5	6939.701	56900
6939.702	75452.5	6939.702	78392.5	6939.702	49810	6939.702	63207.5
6939.703	44322.5	6939.703	79720	6939.703	-2067.5	6939.703	43685
6939.704	15570	6939.704	-17942.5	6939.704	-6770	6939.704	41942.5
6939.705	15487.5	6939.705	-3840	6939.705	325	6939.705	37950
6939.706	2977.5	6939.706	5452.5	6939.706	2975	6939.706	18070
6939.707	1475	6939.707	8825	6939.707	3717.5	6939.707	6422.5
6939.708	1630	6939.708	10242.5	6939.708	3972.5	6939.708	5765
6939.709	3430	6939.709	12252.5	6939.709	4910	6939.709	6912.5
6939.71	3747.5	6939.71	13085	6939.71	4955	6939.71	6640
6939.711	3580	6939.711	13255	6939.711	4197.5	6939.711	5902.5
6939.712	4787.5	6939.712	14592.5	6939.712	4142.5	6939.712	6390
6939.713	5387.5	6939.713	15487.5	6939.713	3740	6939.713	6695
6939.714	5605	6939.714	16245	6939.714	3062.5	6939.714	6837.5
6939.715	5597.5	6939.715	16885	6939.715	2470	6939.715	6845
6939.716	6220	6939.716	18055	6939.716	2245	6939.716	7362.5
6939.717	7392.5	6939.717	19507.5	6939.717	2492.5	6939.717	8625
6939.718	8555	6939.718	20650	6939.718	2710	6939.718	9975
6939.719	9710	6939.719	21530	6939.719	3047.5	6939.719	11415
6939.72	10940	6939.72	22077.5	6939.72	3532.5	6939.72	13065
6939.721	12167.5	6939.721	22477.5	6939.721	4150	6939.721	14605
6939.722	13285	6939.722	22492.5	6939.722	4940	6939.722	16072.5
6939.723	14302.5	6939.723	22355	6939.723	5890	6939.723	17385
6939.724	15127.5	6939.724	22010	6939.724	6787.5	6939.724	18417.5
6939.725	15810	6939.725	21582.5	6939.725	7772.5	6939.725	19302.5
6939.726	16252.5	6939.726	21032.5	6939.726	8707.5	6939.726	19912.5
6939.727	16565	6939.727	20507.5	6939.727	9502.5	6939.727	20407.5
6939.728	16752.5	6939.728	19900	6939.728	10215	6939.728	20702.5
6939.729	16782.5	6939.729	19167.5	6939.729	10750	6939.729	20815
6939.73	16662.5	6939.73	18632.5	6939.73	11145	6939.73	20820
6939.731	16527.5	6939.731	17967.5	6939.731	11345	6939.731	20670
6939.732	16290	6939.732	17382.5	6939.732	11472.5	6939.732	20422.5
6939.733	15947.5	6939.733	16812.5	6939.733	11435	6939.733	20162.5
6939.734	15555	6939.734	16167.5	6939.734	11345	6939.734	19765
6939.735	15122.5	6939.735	15507.5	6939.735	11095	6939.735	19370
6939.736	14680	6939.736	14892.5	6939.736	10755	6939.736	18895
6939.737	14207.5	6939.737	14287.5	6939.737	10427.5	6939.737	18360
6939.738	13737.5	6939.738	13707.5	6939.738	9970	6939.738	17825
6939.739	13295	6939.739	13187.5	6939.739	9525	6939.739	17330
6939.74	12800	6939.74	12610	6939.74	9027.5	6939.74	16747.5
6939.741	12287.5	6939.741	12067.5	6939.741	8540	6939.741	16177.5
6939.742	11827.5	6939.742	11525	6939.742	8062.5	6939.742	15612.5
6939.743	11437.5	6939.743	10980	6939.743	7712.5	6939.743	15057.5
6939.744	10957.5	6939.744	10612.5	6939.744	7297.5	6939.744	14590
6939.745	10447.5	6939.745	10085	6939.745	6965	6939.745	14140
6939.746	10062.5	6939.746	9650	6939.746	6645	6939.746	13647.5
6939.747	9640	6939.747	9212.5	6939.747	6400	6939.747	13237.5
6939.748	9295	6939.748	8792.5	6939.748	6170	6939.748	12852.5
6939.749	8950	6939.749	8327.5	6939.749	5995	6939.749	12380
6939.75	8557.5	6939.75	7960	6939.75	5657.5	6939.75	12022.5
6939.751	8207.5	6939.751	7650	6939.751	5470	6939.751	11655
6939.752	7835	6939.752	7300	6939.752	5232.5	6939.752	11295
6939.753	7537.5	6939.753	6962.5	6939.753	5022.5	6939.753	10937.5
6939.754	7185	6939.754	6672.5	6939.754	4715	6939.754	10502.5
6939.755	6887.5	6939.755	6312.5	6939.755	4542.5	6939.755	10170
6939.756	6585	6939.756	6005	6939.756	4195	6939.756	9792.5
6939.757	6275	6939.757	5710	6939.757	3852.5	6939.757	9425
6939.758	5977.5	6939.758	5340	6939.758	3570	6939.758	9030
6939.759	5715	6939.759	5070	6939.759	3295	6939.759	8685
6939.76	5450	6939.76	4842.5	6939.76	3012.5	6939.76	8282.5
6939.761	5237.5	6939.761	4582.5	6939.761	2730	6939.761	7890
6939.762	4922.5	6939.762	4410	6939.762	2490	6939.762	7482.5
6939.763	4715	6939.763	4060	6939.763	2282.5	6939.763	7142.5
6939.764	4475	6939.764	3840	6939.764	2082.5	6939.764	6637.5
6939.765	4270	6939.765	3602.5	6939.765	1925	6939.765	6155
6939.766	4055	6939.766	3440	6939.766	1877.5	6939.766	5762.5
6939.767	3832.5	6939.767	3142.5	6939.767	1807.5	6939.767	5315
6939.768	3662.5	6939.768	2915	6939.768	1810	6939.768	4860
6939.769	3445	6939.769	2622.5	6939.769	1770	6939.769	4477.5
6939.77	3262.5	6939.77	2372.5	6939.77	1715	6939.77	4080
6939.771	3075	6939.771	2112.5	6939.771	1630	6939.771	3677.5
6939.772	2840	6939.772	1920	6939.772	1517.5	6939.772	3272.5
6939.773	2647.5	6939.773	1757.5	6939.773	1457.5	6939.773	2847.5
6939.774	2480	6939.774	1470	6939.774	1302.5	6939.774	2450
6939.775	2257.5	6939.775	1250	6939.775	1197.5	6939.775	2055
6939.776	2030	6939.776	997.5	6939.776	972.5	6939.776	1575
6939.777	1802.5	6939.777	732.5	6939.777	755	6939.777	1192.5
6939.778	1600	6939.778	440	6939.778	582.5	6939.778	817.5
6939.779	1362.5	6939.779	187.5	6939.779	290	6939.779	420
6939.78	1157.5	6939.78	-32.5	6939.78	77.5	6939.78	22.5
6939.781	937.5	6939.781	-257.5	6939.781	-145	6939.781	-335
6939.782	725	6939.782	-435	6939.782	-372.5	6939.782	-700
6939.783	532.5	6939.783	-645	6939.783	-582.5	6939.783	-1007.5
6939.784	322.5	6939.784	-990	6939.784	-705	6939.784	-1320
6939.785	102.5	6939.785	-1150	6939.785	-835	6939.785	-1567.5
6939.786	-70	6939.786	-1370	6939.786	-880	6939.786	-1792.5
6939.787	-295	6939.787	-1605	6939.787	-912.5	6939.787	-2025
6939.788	-437.5	6939.788	-1830	6939.788	-952.5	6939.788	-2270
6939.789	-600	6939.789	-2080	6939.789	-917.5	6939.789	-2487.5
6939.79	-817.5	6939.79	-2265	6939.79	-1062.5	6939.79	-2692.5
6939.791	-982.5	6939.791	-2437.5	6939.791	-1047.5	6939.791	-2840
6939.792	-1165	6939.792	-2702.5	6939.792	-1137.5	6939.792	-3115
6939.793	-1347.5	6939.793	-2907.5	6939.793	-1215	6939.793	-3277.5
6939.794	-1587.5	6939.794	-3052.5	6939.794	-1290	6939.794	-3565
6939.795	-1760	6939.795	-3240	6939.795	-1410	6939.795	-3770
6939.796	-1965	6939.796	-3375	6939.796	-1662.5	6939.796	-4030
6939.797	-2162.5	6939.797	-3662.5	6939.797	-1847.5	6939.797	-4242.5
6939.798	-2355	6939.798	-3837.5	6939.798	-2045	6939.798	-4512.5
6939.799	-2527.5	6939.799	-4102.5	6939.799	-2272.5	6939.799	-4737.5
6939.8	-2692.5	6939.8	-4177.5	6939.8	-2495	6939.8	-4977.5
6939.801	-2877.5	6939.801	-4385	6939.801	-2642.5	6939.801	-5157.5
6939.802	-3025	6939.802	-4500	6939.802	-2850	6939.802	-5430
6939.803	-3210	6939.803	-4610	6939.803	-3017.5	6939.803	-5660
6939.804	-3340	6939.804	-4732.5	6939.804	-3145	6939.804	-5837.5
6939.805	-3495	6939.805	-4812.5	6939.805	-3175	6939.805	-5977.5
6939.806	-3610	6939.806	-4972.5	6939.806	-3222.5	6939.806	-6032.5
6939.807	-3752.5	6939.807	-5020	6939.807	-3252.5	6939.807	-6185
6939.808	-3855	6939.808	-5102.5	6939.808	-3247.5	6939.808	-6267.5
6939.809	-4015	6939.809	-5212.5	6939.809	-3267.5	6939.809	-6362.5
6939.81	-4115	6939.81	-5315	6939.81	-3337.5	6939.81	-6447.5
6939.811	-4232.5	6939.811	-5385	6939.811	-3257.5	6939.811	-6520
6939.812	-4310	6939.812	-5425	6939.812	-3297.5	6939.812	-6660
6939.813	-4442.5	6939.813	-5440	6939.813	-3295	6939.813	-6682.5
6939.814	-4527.5	6939.814	-5522.5	6939.814	-3342.5	6939.814	-6805
6939.815	-4647.5	6939.815	-5625	6939.815	-3397.5	6939.815	-6887.5
6939.816	-4750	6939.816	-5707.5	6939.816	-3535	6939.816	-7047.5
6939.817	-4837.5	6939.817	-5820	6939.817	-3630	6939.817	-7185
6939.818	-4932.5	6939.818	-5922.5	6939.818	-3827.5	6939.818	-7322.5
6939.819	-5020	6939.819	-5902.5	6939.819	-4020	6939.819	-7445
6939.82	-5102.5	6939.82	-5857.5	6939.82	-4150	6939.82	-7542.5
6939.821	-5227.5	6939.821	-5890	6939.821	-4305	6939.821	-7680
6939.822	-5290	6939.822	-5835	6939.822	-4460	6939.822	-7812.5
6939.823	-5340	6939.823	-5787.5	6939.823	-4475	6939.823	-7840
6939.824	-5387.5	6939.824	-5780	6939.824	-4562.5	6939.824	-7857.5
6939.825	-5467.5	6939.825	-5802.5	6939.825	-4490	6939.825	-7962.5
6939.826	-5497.5	6939.826	-5830	6939.826	-4442.5	6939.826	-7947.5
6939.827	-5500	6939.827	-5765	6939.827	-4467.5	6939.827	-7922.5
6939.828	-5497.5	6939.828	-5785	6939.828	-4390	6939.828	-7892.5
6939.829	-5552.5	6939.829	-5772.5	6939.829	-4330	6939.829	-7890
6939.83	-5597.5	6939.83	-5787.5	6939.83	-4262.5	6939.83	-7847.5
6939.831	-5585	6939.831	-5607.5	6939.831	-4180	6939.831	-7835
6939.832	-5650	6939.832	-5580	6939.832	-4152.5	6939.832	-7857.5
6939.833	-5607.5	6939.833	-5455	6939.833	-4160	6939.833	-7880
6939.834	-5680	6939.834	-5442.5	6939.834	-4107.5	6939.834	-7890
6939.835	-5700	6939.835	-5462.5	6939.835	-4157.5	6939.835	-7855
6939.836	-5700	6939.836	-5582.5	6939.836	-4222.5	6939.836	-7970
6939.837	-5707.5	6939.837	-5585	6939.837	-4245	6939.837	-7957.5
6939.838	-5740	6939.838	-5560	6939.838	-4330	6939.838	-7950
6939.839	-5790	6939.839	-5472.5	6939.839	-4520	6939.839	-7975
6939.84	-5765	6939.84	-5395	6939.84	-4600	6939.84	-8050
6939.841	-5782.5	6939.841	-5347.5	6939.841	-4670	6939.841	-8102.5
6939.842	-5777.5	6939.842	-5255	6939.842	-4667.5	6939.842	-8085
6939.843	-5755	6939.843	-5177.5	6939.843	-4675	6939.843	-8135
6939.844	-5747.5	6939.844	-5150	6939.844	-4675	6939.844	-8152.5
6939.845	-5722.5	6939.845	-5027.5	6939.845	-4630	6939.845	-8050
6939.846	-5722.5	6939.846	-5045	6939.846	-4587.5	6939.846	-8092.5
6939.847	-5695	6939.847	-4957.5	6939.847	-4500	6939.847	-8020
6939.848	-5672.5	6939.848	-4797.5	6939.848	-4332.5	6939.848	-7907.5
6939.849	-5640	6939.849	-4685	6939.849	-4202.5	6939.849	-7842.5
6939.85	-5625	6939.85	-4622.5	6939.85	-4087.5	6939.85	-7767.5
6939.851	-5567.5	6939.851	-4527.5	6939.851	-4007.5	6939.851	-7662.5
6939.852	-5560	6939.852	-4400	6939.852	-3890	6939.852	-7620
6939.853	-5507.5	6939.853	-4292.5	6939.853	-3850	6939.853	-7570
6939.854	-5505	6939.854	-4250	6939.854	-3792.5	6939.854	-7567.5
6939.855	-5470	6939.855	-4162.5	6939.855	-3785	6939.855	-7480
6939.856	-5480	6939.856	-4170	6939.856	-3857.5	6939.856	-7505
6939.857	-5420	6939.857	-4092.5	6939.857	-3872.5	6939.857	-7510
6939.858	-5420	6939.858	-4007.5	6939.858	-3947.5	6939.858	-7425
6939.859	-5377.5	6939.859	-3902.5	6939.859	-3995	6939.859	-7537.5
6939.86	-5372.5	6939.86	-3855	6939.86	-4015	6939.86	-7477.5
6939.861	-5352.5	6939.861	-3720	6939.861	-4145	6939.861	-7480
6939.862	-5302.5	6939.862	-3657.5	6939.862	-4142.5	6939.862	-7435
6939.863	-5290	6939.863	-3602.5	6939.863	-4097.5	6939.863	-7417.5
6939.864	-5255	6939.864	-3542.5	6939.864	-4155	6939.864	-7452.5
6939.865	-5205	6939.865	-3475	6939.865	-4080	6939.865	-7377.5
6939.866	-5147.5	6939.866	-3295	6939.866	-3960	6939.866	-7275
6939.867	-5110	6939.867	-3237.5	6939.867	-3837.5	6939.867	-7162.5
6939.868	-5040	6939.868	-3192.5	6939.868	-3707.5	6939.868	-7067.5
6939.869	-4962.5	6939.869	-3047.5	6939.869	-3495	6939.869	-7000
6939.87	-4952.5	6939.87	-2987.5	6939.87	-3455	6939.87	-6917.5
6939.871	-4900	6939.871	-2875	6939.871	-3330	6939.871	-6832.5
6939.872	-4867.5	6939.872	-2820	6939.872	-3252.5	6939.872	-6725
6939.873	-4820	6939.873	-2642.5	6939.873	-3132.5	6939.873	-6675
6939.874	-4795	6939.874	-2512.5	6939.874	-3062.5	6939.874	-6620
6939.875	-4812.5	6939.875	-2502.5	6939.875	-2997.5	6939.875	-6600
6939.876	-4760	6939.876	-2360	6939.876	-3067.5	6939.876	-6607.5
6939.877	-4747.5	6939.877	-2370	6939.877	-3080	6939.877	-6617.5
6939.878	-4682.5	6939.878	-2325	6939.878	-3132.5	6939.878	-6592.5
6939.879	-4657.5	6939.879	-2230	6939.879	-3215	6939.879	-6642.5
6939.88	-4695	6939.88	-2142.5	6939.88	-3307.5	6939.88	-6577.5
6939.881	-4685	6939.881	-2040	6939.881	-3370	6939.881	-6525
6939.882	-4667.5	6939.882	-1967.5	6939.882	-3380	6939.882	-6572.5
6939.883	-4640	6939.883	-1847.5	6939.883	-3345	6939.883	-6487.5
6939.884	-4560	6939.884	-1675	6939.884	-3390	6939.884	-6490
6939.885	-4560	6939.885	-1610	6939.885	-3307.5	6939.885	-6452.5
6939.886	-4495	6939.886	-1577.5	6939.886	-3170	6939.886	-6360
6939.887	-4432.5	6939.887	-1375	6939.887	-3035	6939.887	-6257.5
6939.888	-4387.5	6939.888	-1270	6939.888	-2892.5	6939.888	-6132.5
6939.889	-4350	6939.889	-1120	6939.889	-2777.5	6939.889	-6055
6939.89	-4345	6939.89	-1097.5	6939.89	-2715	6939.89	-5975
6939.891	-4292.5	6939.891	-900	6939.891	-2555	6939.891	-5915
6939.892	-4207.5	6939.892	-802.5	6939.892	-2450	6939.892	-5795
6939.893	-4182.5	6939.893	-682.5	6939.893	-2375	6939.893	-5725
6939.894	-4167.5	6939.894	-650	6939.894	-2345	6939.894	-5690
6939.895	-4165	6939.895	-557.5	6939.895	-2345	6939.895	-5680
6939.896	-4142.5	6939.896	-462.5	6939.896	-2402.5	6939.896	-5682.5
6939.897	-4107.5	6939.897	-417.5	6939.897	-2417.5	6939.897	-5710
6939.898	-4075	6939.898	-447.5	6939.898	-2437.5	6939.898	-5640
6939.899	-4107.5	6939.899	-342.5	6939.899	-2545	6939.899	-5655
6939.9	-4092.5	6939.9	-297.5	6939.9	-2595	6939.9	-5665
6939.901	-4062.5	6939.901	-172.5	6939.901	-2655	6939.901	-5637.5
6939.902	-4040	6939.902	-107.5	6939.902	-2717.5	6939.902	-5647.5
6939.903	-3995	6939.903	-17.5	6939.903	-2662.5	6939.903	-5582.5
6939.904	-3992.5	6939.904	35	6939.904	-2717.5	6939.904	-5592.5
6939.905	-3912.5	6939.905	127.5	6939.905	-2677.5	6939.905	-5492.5
6939.906	-3897.5	6939.906	345	6939.906	-2537.5	6939.906	-5370
6939.907	-3830	6939.907	422.5	6939.907	-2495	6939.907	-5330
6939.908	-3805	6939.908	480	6939.908	-2392.5	6939.908	-5207.5
6939.909	-3747.5	6939.909	547.5	6939.909	-2232.5	6939.909	-5092.5
6939.91	-3730	6939.91	652.5	6939.91	-2087.5	6939.91	-5005
6939.911	-3687.5	6939.911	795	6939.911	-1922.5	6939.911	-4885
6939.912	-3667.5	6939.912	857.5	6939.912	-1892.5	6939.912	-4807.5
6939.913	-3590	6939.913	982.5	6939.913	-1792.5	6939.913	-4822.5
6939.914	-3592.5	6939.914	1082.5	6939.914	-1795	6939.914	-4717.5
6939.915	-3565	6939.915	1150	6939.915	-1822.5	6939.915	-4730
6939.916	-3540	6939.916	1190	6939.916	-1862.5	6939.916	-4705
6939.917	-3507.5	6939.917	1217.5	6939.917	-1855	6939.917	-4655
6939.918	-3512.5	6939.918	1290	6939.918	-1992.5	6939.918	-4622.5
6939.919	-3515	6939.919	1310	6939.919	-2075	6939.919	-4620
6939.92	-3460	6939.92	1460	6939.92	-2082.5	6939.92	-4560
6939.921	-3415	6939.921	1480	6939.921	-2192.5	6939.921	-4592.5
6939.922	-3425	6939.922	1605	6939.922	-2245	6939.922	-4582.5
6939.923	-3372.5	6939.923	1675	6939.923	-2227.5	6939.923	-4510
6939.924	-3367.5	6939.924	1807.5	6939.924	-2185	6939.924	-4447.5
6939.925	-3310	6939.925	1850	6939.925	-2195	6939.925	-4395
6939.926	-3220	6939.926	1987.5	6939.926	-2127.5	6939.926	-4267.5
6939.927	-3165	6939.927	2015	6939.927	-2057.5	6939.927	-4212.5
6939.928	-3145	6939.928	2125	6939.928	-1930	6939.928	-4110
6939.929	-3077.5	6939.929	2242.5	6939.929	-1822.5	6939.929	-3940
6939.93	-3027.5	6939.93	2247.5	6939.93	-1757.5	6939.93	-3925
6939.931	-2980	6939.931	2405	6939.931	-1627.5	6939.931	-3827.5
6939.932	-2917.5	6939.932	2470	6939.932	-1537.5	6939.932	-3757.5
6939.933	-2900	6939.933	2690	6939.933	-1445	6939.933	-3615
6939.934	-2805	6939.934	2852.5	6939.934	-1412.5	6939.934	-3612.5
6939.935	-2790	6939.935	2830	6939.935	-1422.5	6939.935	-3517.5
6939.936	-2765	6939.936	2852.5	6939.936	-1532.5	6939.936	-3502.5
6939.937	-2720	6939.937	2915	6939.937	-1550	6939.937	-3460
6939.938	-2660	6939.938	2980	6939.938	-1587.5	6939.938	-3485
6939.939	-2675	6939.939	3057.5	6939.939	-1680	6939.939	-3425
6939.94	-2642.5	6939.94	3132.5	6939.94	-1810	6939.94	-3447.5
6939.941	-2615	6939.941	3227.5	6939.941	-1840	6939.941	-3397.5
6939.942	-2565	6939.942	3260	6939.942	-1935	6939.942	-3352.5
6939.943	-2537.5	6939.943	3360	6939.943	-1940	6939.943	-3322.5
6939.944	-2525	6939.944	3430	6939.944	-1940	6939.944	-3232.5
6939.945	-2445	6939.945	3487.5	6939.945	-1982.5	6939.945	-3140
6939.946	-2402.5	6939.946	3610	6939.946	-1875	6939.946	-3020
6939.947	-2330	6939.947	3597.5	6939.947	-1822.5	6939.947	-2940
6939.948	-2270	6939.948	3662.5	6939.948	-1750	6939.948	-2797.5
6939.949	-2247.5	6939.949	3705	6939.949	-1657.5	6939.949	-2597.5
6939.95	-2160	6939.95	3830	6939.95	-1570	6939.95	-2430
6939.951	-2117.5	6939.951	3920	6939.951	-1575	6939.951	-2330
6939.952	-2082.5	6939.952	4085	6939.952	-1482.5	6939.952	-2267.5
6939.953	-2052.5	6939.953	4185	6939.953	-1495	6939.953	-2080
6939.954	-2012.5	6939.954	4202.5	6939.954	-1417.5	6939.954	-1922.5
6939.955	-1947.5	6939.955	4335	6939.955	-1425	6939.955	-1872.5
6939.956	-1957.5	6939.956	4337.5	6939.956	-1477.5	6939.956	-1802.5
6939.957	-1917.5	6939.957	4387.5	6939.957	-1602.5	6939.957	-1692.5
6939.958	-1877.5	6939.958	4357.5	6939.958	-1702.5	6939.958	-1575
6939.959	-1877.5	6939.959	4435	6939.959	-1860	6939.959	-1592.5
6939.96	-1835	6939.96	4580	6939.96	-1905	6939.96	-1422.5
6939.961	-1825	6939.961	4642.5	6939.961	-2045	6939.961	-1430
6939.962	-1780	6939.962	4750	6939.962	-2205	6939.962	-1377.5
6939.963	-1805	6939.963	4822.5	6939.963	-2190	6939.963	-1242.5
6939.964	-1797.5	6939.964	4822.5	6939.964	-2265	6939.964	-1160
6939.965	-1732.5	6939.965	4847.5	6939.965	-2272.5	6939.965	-1075
6939.966	-1682.5	6939.966	4920	6939.966	-2210	6939.966	-880
6939.967	-1637.5	6939.967	4960	6939.967	-2137.5	6939.967	-805
6939.968	-1602.5	6939.968	4977.5	6939.968	-2082.5	6939.968	-620
6939.969	-1555	6939.969	5035	6939.969	-1957.5	6939.969	-490
6939.97	-1522.5	6939.97	5080	6939.97	-1875	6939.97	-437.5
6939.971	-1490	6939.971	5167.5	6939.971	-1830	6939.971	-272.5
6939.972	-1452.5	6939.972	5260	6939.972	-1750	6939.972	-200
6939.973	-1412.5	6939.973	5257.5	6939.973	-1745	6939.973	-75
6939.974	-1405	6939.974	5265	6939.974	-1722.5	6939.974	-20
6939.975	-1400	6939.975	5300	6939.975	-1777.5	6939.975	70
6939.976	-1397.5	6939.976	5385	6939.976	-1892.5	6939.976	115
6939.977	-1422.5	6939.977	5422.5	6939.977	-1972.5	6939.977	130
6939.978	-1395	6939.978	5402.5	6939.978	-2047.5	6939.978	180
6939.979	-1412.5	6939.979	5490	6939.979	-2215	6939.979	172.5
6939.98	-1377.5	6939.98	5447.5	6939.98	-2277.5	6939.98	222.5
6939.981	-1372.5	6939.981	5530	6939.981	-2382.5	6939.981	177.5
6939.982	-1362.5	6939.982	5627.5	6939.982	-2405	6939.982	232.5
6939.983	-1340	6939.983	5662.5	6939.983	-2440	6939.983	262.5
6939.984	-1345	6939.984	5695	6939.984	-2445	6939.984	302.5
6939.985	-1325	6939.985	5690	6939.985	-2430	6939.985	405
6939.986	-1310	6939.986	5780	6939.986	-2272.5	6939.986	485
6939.987	-1272.5	6939.987	5762.5	6939.987	-2257.5	6939.987	607.5
6939.988	-1250	6939.988	5817.5	6939.988	-2195	6939.988	655
6939.989	-1232.5	6939.989	5842.5	6939.989	-2050	6939.989	732.5
6939.99	-1202.5	6939.99	5865	6939.99	-1985	6939.99	852.5
6939.991	-1167.5	6939.991	5985	6939.991	-1902.5	6939.991	890
6939.992	-1120	6939.992	5990	6939.992	-1807.5	6939.992	922.5
6939.993	-1130	6939.993	6025	6939.993	-1800	6939.993	1030
6939.994	-1127.5	6939.994	6070	6939.994	-1692.5	6939.994	1065
6939.995	-1090	6939.995	6070	6939.995	-1717.5	6939.995	1105
6939.996	-1077.5	6939.996	6077.5	6939.996	-1767.5	6939.996	1057.5
6939.997	-1052.5	6939.997	6077.5	6939.997	-1805	6939.997	1047.5
6939.998	-1025	6939.998	6192.5	6939.998	-1827.5	6939.998	1020
6939.999	-1055	6939.999	6197.5	6939.999	-1917.5	6939.999	1007.5
6940	-1062.5	6940	6250	6940	-2005	6940	967.5
6940.001	-1045	6940.001	6297.5	6940.001	-2117.5	6940.001	935
6940.002	-1037.5	6940.002	6355	6940.002	-2137.5	6940.002	970
6940.003	-1022.5	6940.003	6467.5	6940.003	-2132.5	6940.003	990
