C2(X)	C2(Y)	C3(X)	C3(Y)	D1(X)	D1(Y)	D3(X)	D3(Y)	D4(X)	D4(Y)
6938.063	-9185	6938.063	-6132.5	6938.063	-4737.5	6938.063	-6427.5	6938.063	-577.5
6938.064	-8950	6938.064	-5912.5	6938.064	-4510	6938.064	-6290	6938.064	-535
6938.065	-8722.5	6938.065	-5860	6938.065	-4312.5	6938.065	-6195	6938.065	-525
6938.066	-8540	6938.066	-5687.5	6938.066	-4160	6938.066	-5957.5	6938.066	-490
6938.067	-8377.5	6938.067	-5582.5	6938.067	-3860	6938.067	-5830	6938.067	-512.5
6938.068	-8150	6938.068	-5427.5	6938.068	-3582.5	6938.068	-5662.5	6938.068	-457.5
6938.069	-7995	6938.069	-5350	6938.069	-3532.5	6938.069	-5542.5	6938.069	-467.5
6938.07	-7780	6938.07	-5277.5	6938.07	-3342.5	6938.07	-5387.5	6938.07	-425
6938.071	-7625	6938.071	-5157.5	6938.071	-3125	6938.071	-5207.5	6938.071	-415
6938.072	-7540	6938.072	-5107.5	6938.072	-3072.5	6938.072	-5105	6938.072	-400
6938.073	-7345	6938.073	-4967.5	6938.073	-2987.5	6938.073	-4995	6938.073	-390
6938.074	-7325	6938.074	-4932.5	6938.074	-3065	6938.074	-4997.5	6938.074	-380
6938.075	-7382.5	6938.075	-4887.5	6938.075	-3470	6938.075	-5027.5	6938.075	-355
6938.076	-7315	6938.076	-4815	6938.076	-3492.5	6938.076	-5032.5	6938.076	-342.5
6938.077	-7312.5	6938.077	-4810	6938.077	-3657.5	6938.077	-5057.5	6938.077	-322.5
6938.078	-7302.5	6938.078	-4775	6938.078	-3822.5	6938.078	-5065	6938.078	-345
6938.079	-7292.5	6938.079	-4687.5	6938.079	-3895	6938.079	-5067.5	6938.079	-285
6938.08	-7362.5	6938.08	-4670	6938.08	-4015	6938.08	-5077.5	6938.08	-285
6938.081	-7302.5	6938.081	-4650	6938.081	-4080	6938.081	-5060	6938.081	-277.5
6938.082	-7255	6938.082	-4567.5	6938.082	-4180	6938.082	-5055	6938.082	-255
6938.083	-7145	6938.083	-4430	6938.083	-4142.5	6938.083	-5027.5	6938.083	-227.5
6938.084	-6992.5	6938.084	-4445	6938.084	-4025	6938.084	-4850	6938.084	-210
6938.085	-6897.5	6938.085	-4332.5	6938.085	-3635	6938.085	-4640	6938.085	-200
6938.086	-6702.5	6938.086	-4217.5	6938.086	-3507.5	6938.086	-4537.5	6938.086	-200
6938.087	-6435	6938.087	-4095	6938.087	-3220	6938.087	-4390	6938.087	-160
6938.088	-6207.5	6938.088	-4007.5	6938.088	-2967.5	6938.088	-4155	6938.088	-150
6938.089	-6065	6938.089	-3907.5	6938.089	-2755	6938.089	-4057.5	6938.089	-125
6938.09	-5822.5	6938.09	-3827.5	6938.09	-2550	6938.09	-3907.5	6938.09	-97.5
6938.091	-5660	6938.091	-3660	6938.091	-2552.5	6938.091	-3782.5	6938.091	-75
6938.092	-5567.5	6938.092	-3567.5	6938.092	-2447.5	6938.092	-3725	6938.092	-40
6938.093	-5450	6938.093	-3480	6938.093	-2375	6938.093	-3567.5	6938.093	-45
6938.094	-5402.5	6938.094	-3490	6938.094	-2465	6938.094	-3600	6938.094	-17.5
6938.095	-5372.5	6938.095	-3507.5	6938.095	-2585	6938.095	-3580	6938.095	-15
6938.096	-5290	6938.096	-3480	6938.096	-2702.5	6938.096	-3645	6938.096	10
6938.097	-5310	6938.097	-3415	6938.097	-2847.5	6938.097	-3610	6938.097	40
6938.098	-5492.5	6938.098	-3357.5	6938.098	-2952.5	6938.098	-3677.5	6938.098	45
6938.099	-5442.5	6938.099	-3340	6938.099	-3117.5	6938.099	-3685	6938.099	37.5
6938.1	-5382.5	6938.1	-3282.5	6938.1	-3227.5	6938.1	-3685	6938.1	80
6938.101	-5352.5	6938.101	-3140	6938.101	-3267.5	6938.101	-3672.5	6938.101	107.5
6938.102	-5297.5	6938.102	-3080	6938.102	-3242.5	6938.102	-3585	6938.102	112.5
6938.103	-5197.5	6938.103	-3117.5	6938.103	-3245	6938.103	-3457.5	6938.103	137.5
6938.104	-5190	6938.104	-3107.5	6938.104	-3057.5	6938.104	-3360	6938.104	127.5
6938.105	-5087.5	6938.105	-3130	6938.105	-2775	6938.105	-3295	6938.105	132.5
6938.106	-5282.5	6938.106	-3200	6938.106	-2865	6938.106	-3355	6938.106	105
6938.107	-5095	6938.107	-3110	6938.107	-2572.5	6938.107	-3112.5	6938.107	135
6938.108	-3367.5	6938.108	-1502.5	6938.108	-937.5	6938.108	-1385	6938.108	527.5
6938.109	-1122.5	6938.109	585	6938.109	1145	6938.109	797.5	6938.109	975
6938.11	1840	6938.11	2912.5	6938.11	4115	6938.11	3137.5	6938.11	1320
6938.111	5182.5	6938.111	5662.5	6938.111	7282.5	6938.111	5665	6938.111	1807.5
6938.112	11072.5	6938.112	11152.5	6938.112	12470	6938.112	11150	6938.112	3055
6938.113	17515	6938.113	17787.5	6938.113	18012.5	6938.113	17780	6938.113	4832.5
6938.114	28867.5	6938.114	30895	6938.114	26450	6938.114	30910	6938.114	8717.5
6938.115	39707.5	6938.115	44622.5	6938.115	34830	6938.115	44565	6938.115	12750
6938.116	48537.5	6938.116	56485	6938.116	41010	6938.116	56045	6938.116	15992.5
6938.117	56455	6938.117	67142.5	6938.117	46787.5	6938.117	66457.5	6938.117	18377.5
6938.118	64357.5	6938.118	78120	6938.118	51745	6938.118	76840	6938.118	20280
6938.119	68325	6938.119	81917.5	6938.119	45140	6938.119	81907.5	6938.119	21082.5
6938.12	63120	6938.12	81275	6938.12	19510	6938.12	81917.5	6938.12	22435
6938.121	44787.5	6938.121	70175	6938.121	8005	6938.121	41527.5	6938.121	2880
6938.122	8292.5	6938.122	10282.5	6938.122	8520	6938.122	9302.5	6938.122	-832.5
6938.123	8030	6938.123	557.5	6938.123	9082.5	6938.123	12500	6938.123	1680
6938.124	7407.5	6938.124	5532.5	6938.124	8745	6938.124	13745	6938.124	2592.5
6938.125	7505	6938.125	7647.5	6938.125	8892.5	6938.125	14462.5	6938.125	3140
6938.126	8087.5	6938.126	8937.5	6938.126	9602.5	6938.126	15122.5	6938.126	3562.5
6938.127	7630	6938.127	8715	6938.127	9795	6938.127	14580	6938.127	3532.5
6938.128	8262.5	6938.128	9822.5	6938.128	10195	6938.128	15157.5	6938.128	3930
6938.129	9172.5	6938.129	11065	6938.129	10770	6938.129	15935	6938.129	4267.5
6938.13	10240	6938.13	12452.5	6938.13	11590	6938.13	16910	6938.13	4642.5
6938.131	10685	6938.131	12970	6938.131	11805	6938.131	17125	6938.131	4807.5
6938.132	11330	6938.132	13897.5	6938.132	12252.5	6938.132	17780	6938.132	5097.5
6938.133	12767.5	6938.133	15497.5	6938.133	12972.5	6938.133	19105	6938.133	5592.5
6938.134	14437.5	6938.134	17462.5	6938.134	13895	6938.134	20687.5	6938.134	6177.5
6938.135	15945	6938.135	19347.5	6938.135	14505	6938.135	22160	6938.135	6682.5
6938.136	17610	6938.136	21285	6938.136	15290	6938.136	23737.5	6938.136	7167.5
6938.137	19272.5	6938.137	23050	6938.137	15785	6938.137	25117.5	6938.137	7547.5
6938.138	20787.5	6938.138	24670	6938.138	16372.5	6938.138	26362.5	6938.138	7832.5
6938.139	22075	6938.139	26020	6938.139	16802.5	6938.139	27362.5	6938.139	8037.5
6938.14	23087.5	6938.14	26907.5	6938.14	17197.5	6938.14	28032.5	6938.14	8152.5
6938.141	23890	6938.141	27570	6938.141	17452.5	6938.141	28432.5	6938.141	8192.5
6938.142	24430	6938.142	27857.5	6938.142	17920	6938.142	28655	6938.142	8192.5
6938.143	24707.5	6938.143	28015	6938.143	17980	6938.143	28657.5	6938.143	8100
6938.144	24822.5	6938.144	28027.5	6938.144	18142.5	6938.144	28540	6938.144	8050
6938.145	24875	6938.145	27880	6938.145	18507.5	6938.145	28305	6938.145	7925
6938.146	24890	6938.146	27625	6938.146	18612.5	6938.146	28027.5	6938.146	7787.5
6938.147	24832.5	6938.147	27397.5	6938.147	18642.5	6938.147	27722.5	6938.147	7677.5
6938.148	24627.5	6938.148	27062.5	6938.148	18717.5	6938.148	27285	6938.148	7537.5
6938.149	24297.5	6938.149	26615	6938.149	18497.5	6938.149	26805	6938.149	7382.5
6938.15	23970	6938.15	26227.5	6938.15	18562.5	6938.15	26332.5	6938.15	7237.5
6938.151	23557.5	6938.151	25675	6938.151	18185	6938.151	25787.5	6938.151	7057.5
6938.152	23057.5	6938.152	25222.5	6938.152	17785	6938.152	25207.5	6938.152	6895
6938.153	22565	6938.153	24645	6938.153	17350	6938.153	24587.5	6938.153	6737.5
6938.154	21950	6938.154	24022.5	6938.154	16802.5	6938.154	23925	6938.154	6587.5
6938.155	21345	6938.155	23320	6938.155	16120	6938.155	23225	6938.155	6445
6938.156	20625	6938.156	22717.5	6938.156	15530	6938.156	22417.5	6938.156	6272.5
6938.157	19960	6938.157	21977.5	6938.157	14910	6938.157	21660	6938.157	6110
6938.158	19240	6938.158	21245	6938.158	14210	6938.158	20867.5	6938.158	5962.5
6938.159	18545	6938.159	20515	6938.159	13440	6938.159	20117.5	6938.159	5807.5
6938.16	17817.5	6938.16	19770	6938.16	12812.5	6938.16	19330	6938.16	5662.5
6938.161	17130	6938.161	19027.5	6938.161	12170	6938.161	18582.5	6938.161	5540
6938.162	16475	6938.162	18277.5	6938.162	11607.5	6938.162	17887.5	6938.162	5350
6938.163	15877.5	6938.163	17610	6938.163	11177.5	6938.163	17202.5	6938.163	5215
6938.164	15287.5	6938.164	16895	6938.164	10852.5	6938.164	16537.5	6938.164	5080
6938.165	14797.5	6938.165	16175	6938.165	10492.5	6938.165	16000	6938.165	4942.5
6938.166	14280	6938.166	15592.5	6938.166	10387.5	6938.166	15402.5	6938.166	4815
6938.167	13905	6938.167	14952.5	6938.167	10195	6938.167	14877.5	6938.167	4700
6938.168	13402.5	6938.168	14382.5	6938.168	10072.5	6938.168	14357.5	6938.168	4547.5
6938.169	12967.5	6938.169	13782.5	6938.169	9827.5	6938.169	13765	6938.169	4432.5
6938.17	12482.5	6938.17	13220	6938.17	9647.5	6938.17	13350	6938.17	4310
6938.171	12077.5	6938.171	12687.5	6938.171	9325	6938.171	12857.5	6938.171	4217.5
6938.172	11587.5	6938.172	12135	6938.172	8895	6938.172	12280	6938.172	4075
6938.173	11077.5	6938.173	11620	6938.173	8642.5	6938.173	11820	6938.173	3970
6938.174	10610	6938.174	11075	6938.174	8292.5	6938.174	11237.5	6938.174	3832.5
6938.175	10002.5	6938.175	10475	6938.175	7720	6938.175	10640	6938.175	3707.5
6938.176	9507.5	6938.176	9977.5	6938.176	7375	6938.176	10067.5	6938.176	3612.5
6938.177	9005	6938.177	9452.5	6938.177	6862.5	6938.177	9465	6938.177	3500
6938.178	8480	6938.178	8985	6938.178	6357.5	6938.178	8945	6938.178	3372.5
6938.179	7917.5	6938.179	8382.5	6938.179	5865	6938.179	8392.5	6938.179	3280
6938.18	7405	6938.18	7892.5	6938.18	5335	6938.18	7862.5	6938.18	3160
6938.181	6957.5	6938.181	7530	6938.181	5065	6938.181	7355	6938.181	3077.5
6938.182	6555	6938.182	7087.5	6938.182	4772.5	6938.182	6882.5	6938.182	2982.5
6938.183	6160	6938.183	6647.5	6938.183	4552.5	6938.183	6477.5	6938.183	2835
6938.184	5752.5	6938.184	6232.5	6938.184	4317.5	6938.184	6150	6938.184	2767.5
6938.185	5515	6938.185	5855	6938.185	4467.5	6938.185	5812.5	6938.185	2657.5
6938.186	5240	6938.186	5520	6938.186	4517.5	6938.186	5492.5	6938.186	2545
6938.187	5037.5	6938.187	5197.5	6938.187	4535	6938.187	5200	6938.187	2447.5
6938.188	4845	6938.188	4825	6938.188	4542.5	6938.188	4935	6938.188	2360
6938.189	4562.5	6938.189	4435	6938.189	4482.5	6938.189	4620	6938.189	2247.5
6938.19	4405	6938.19	4132.5	6938.19	4380	6938.19	4260	6938.19	2177.5
6938.191	4142.5	6938.191	3777.5	6938.191	4237.5	6938.191	3982.5	6938.191	2070
6938.192	3787.5	6938.192	3442.5	6938.192	4075	6938.192	3575	6938.192	1952.5
6938.193	3557.5	6938.193	3127.5	6938.193	3987.5	6938.193	3200	6938.193	1847.5
6938.194	3312.5	6938.194	2677.5	6938.194	3760	6938.194	2825	6938.194	1787.5
6938.195	2842.5	6938.195	2220	6938.195	3282.5	6938.195	2405	6938.195	1652.5
6938.196	2467.5	6938.196	1805	6938.196	2910	6938.196	1975	6938.196	1530
6938.197	2090	6938.197	1485	6938.197	2517.5	6938.197	1430	6938.197	1430
6938.198	1630	6938.198	1087.5	6938.198	2065	6938.198	1020	6938.198	1302.5
6938.199	1222.5	6938.199	677.5	6938.199	1760	6938.199	662.5	6938.199	1185
6938.2	802.5	6938.2	355	6938.2	1455	6938.2	232.5	6938.2	1080
6938.201	412.5	6938.201	-37.5	6938.201	1207.5	6938.201	-202.5	6938.201	997.5
6938.202	167.5	6938.202	-287.5	6938.202	1110	6938.202	-542.5	6938.202	895
6938.203	-252.5	6938.203	-712.5	6938.203	1005	6938.203	-920	6938.203	765
6938.204	-482.5	6938.204	-972.5	6938.204	837.5	6938.204	-1227.5	6938.204	680
6938.205	-655	6938.205	-1335	6938.205	812.5	6938.205	-1510	6938.205	570
6938.206	-832.5	6938.206	-1632.5	6938.206	855	6938.206	-1735	6938.206	470
6938.207	-950	6938.207	-1895	6938.207	942.5	6938.207	-1942.5	6938.207	352.5
6938.208	-1140	6938.208	-2132.5	6938.208	1010	6938.208	-2215	6938.208	262.5
6938.209	-1327.5	6938.209	-2375	6938.209	1047.5	6938.209	-2412.5	6938.209	145
6938.21	-1530	6938.21	-2655	6938.21	965	6938.21	-2695	6938.21	80
6938.211	-1630	6938.211	-2882.5	6938.211	807.5	6938.211	-2895	6938.211	-15
6938.212	-1910	6938.212	-3162.5	6938.212	747.5	6938.212	-3187.5	6938.212	-97.5
6938.213	-2082.5	6938.213	-3472.5	6938.213	625	6938.213	-3425	6938.213	-192.5
6938.214	-2412.5	6938.214	-3810	6938.214	325	6938.214	-3735	6938.214	-262.5
6938.215	-2727.5	6938.215	-4100	6938.215	-107.5	6938.215	-4085	6938.215	-360
6938.216	-3042.5	6938.216	-4350	6938.216	-407.5	6938.216	-4490	6938.216	-435
6938.217	-3305	6938.217	-4685	6938.217	-777.5	6938.217	-4772.5	6938.217	-515
6938.218	-3687.5	6938.218	-4872.5	6938.218	-1117.5	6938.218	-5132.5	6938.218	-610
6938.219	-3930	6938.219	-5170	6938.219	-1510	6938.219	-5392.5	6938.219	-652.5
6938.22	-4230	6938.22	-5455	6938.22	-1720	6938.22	-5757.5	6938.22	-722.5
6938.221	-4582.5	6938.221	-5650	6938.221	-1875	6938.221	-6002.5	6938.221	-797.5
6938.222	-4740	6938.222	-5902.5	6938.222	-2037.5	6938.222	-6267.5	6938.222	-870
6938.223	-4930	6938.223	-6070	6938.223	-2242.5	6938.223	-6540	6938.223	-930
6938.224	-5115	6938.224	-6230	6938.224	-2332.5	6938.224	-6680	6938.224	-972.5
6938.225	-5137.5	6938.225	-6307.5	6938.225	-2122.5	6938.225	-6730	6938.225	-1032.5
6938.226	-5302.5	6938.226	-6545	6938.226	-2062.5	6938.226	-6862.5	6938.226	-1115
6938.227	-5280	6938.227	-6630	6938.227	-1910	6938.227	-6947.5	6938.227	-1167.5
6938.228	-5335	6938.228	-6750	6938.228	-1662.5	6938.228	-6972.5	6938.228	-1200
6938.229	-5322.5	6938.229	-6845	6938.229	-1562.5	6938.229	-7120	6938.229	-1262.5
6938.23	-5320	6938.23	-6955	6938.23	-1580	6938.23	-7180	6938.23	-1305
6938.231	-5435	6938.231	-7050	6938.231	-1500	6938.231	-7217.5	6938.231	-1352.5
6938.232	-5455	6938.232	-7262.5	6938.232	-1810	6938.232	-7352.5	6938.232	-1382.5
6938.233	-5522.5	6938.233	-7362.5	6938.233	-1822.5	6938.233	-7412.5	6938.233	-1442.5
6938.234	-5672.5	6938.234	-7432.5	6938.234	-2032.5	6938.234	-7630	6938.234	-1475
6938.235	-5792.5	6938.235	-7552.5	6938.235	-2312.5	6938.235	-7840	6938.235	-1525
6938.236	-6002.5	6938.236	-7715	6938.236	-2520	6938.236	-7997.5	6938.236	-1555
6938.237	-6230	6938.237	-7822.5	6938.237	-2877.5	6938.237	-8170	6938.237	-1605
6938.238	-6392.5	6938.238	-7915	6938.238	-3120	6938.238	-8305	6938.238	-1590
6938.239	-6612.5	6938.239	-7992.5	6938.239	-3352.5	6938.239	-8562.5	6938.239	-1642.5
6938.24	-6720	6938.24	-8137.5	6938.24	-3582.5	6938.24	-8737.5	6938.24	-1692.5
6938.241	-6827.5	6938.241	-8277.5	6938.241	-3675	6938.241	-8852.5	6938.241	-1697.5
6938.242	-6925	6938.242	-8307.5	6938.242	-3747.5	6938.242	-8895	6938.242	-1725
6938.243	-7007.5	6938.243	-8385	6938.243	-3712.5	6938.243	-8937.5	6938.243	-1735
6938.244	-6992.5	6938.244	-8400	6938.244	-3442.5	6938.244	-9037.5	6938.244	-1772.5
6938.245	-6982.5	6938.245	-8470	6938.245	-3370	6938.245	-9002.5	6938.245	-1770
6938.246	-6912.5	6938.246	-8492.5	6938.246	-3115	6938.246	-8910	6938.246	-1790
6938.247	-6820	6938.247	-8395	6938.247	-2962.5	6938.247	-8890	6938.247	-1780
6938.248	-6750	6938.248	-8432.5	6938.248	-2820	6938.248	-8812.5	6938.248	-1800
6938.249	-6645	6938.249	-8477.5	6938.249	-2550	6938.249	-8745	6938.249	-1797.5
6938.25	-6537.5	6938.25	-8455	6938.25	-2490	6938.25	-8730	6938.25	-1820
6938.251	-6522.5	6938.251	-8402.5	6938.251	-2367.5	6938.251	-8767.5	6938.251	-1845
6938.252	-6497.5	6938.252	-8427.5	6938.252	-2357.5	6938.252	-8762.5	6938.252	-1837.5
6938.253	-6502.5	6938.253	-8435	6938.253	-2192.5	6938.253	-8677.5	6938.253	-1832.5
6938.254	-6580	6938.254	-8495	6938.254	-2335	6938.254	-8742.5	6938.254	-1850
6938.255	-6697.5	6938.255	-8542.5	6938.255	-2680	6938.255	-8870	6938.255	-1850
6938.256	-6727.5	6938.256	-8525	6938.256	-2760	6938.256	-8927.5	6938.256	-1870
6938.257	-6775	6938.257	-8545	6938.257	-3042.5	6938.257	-9027.5	6938.257	-1857.5
6938.258	-6907.5	6938.258	-8575	6938.258	-3407.5	6938.258	-9052.5	6938.258	-1877.5
6938.259	-6982.5	6938.259	-8590	6938.259	-3380	6938.259	-9200	6938.259	-1900
6938.26	-7047.5	6938.26	-8580	6938.26	-3562.5	6938.26	-9282.5	6938.26	-1872.5
6938.261	-7070	6938.261	-8627.5	6938.261	-3667.5	6938.261	-9317.5	6938.261	-1900
6938.262	-7092.5	6938.262	-8600	6938.262	-3580	6938.262	-9352.5	6938.262	-1907.5
6938.263	-7097.5	6938.263	-8547.5	6938.263	-3587.5	6938.263	-9257.5	6938.263	-1885
6938.264	-7032.5	6938.264	-8550	6938.264	-3400	6938.264	-9295	6938.264	-1872.5
6938.265	-6950	6938.265	-8445	6938.265	-3007.5	6938.265	-9147.5	6938.265	-1870
6938.266	-6852.5	6938.266	-8460	6938.266	-2882.5	6938.266	-9050	6938.266	-1910
6938.267	-6722.5	6938.267	-8360	6938.267	-2675	6938.267	-9030	6938.267	-1900
6938.268	-6512.5	6938.268	-8282.5	6938.268	-2367.5	6938.268	-8852.5	6938.268	-1877.5
6938.269	-6435	6938.269	-8252.5	6938.269	-2122.5	6938.269	-8687.5	6938.269	-1882.5
6938.27	-6310	6938.27	-8240	6938.27	-2070	6938.27	-8650	6938.27	-1885
6938.271	-6272.5	6938.271	-8130	6938.271	-1882.5	6938.271	-8490	6938.271	-1867.5
6938.272	-6187.5	6938.272	-8097.5	6938.272	-1825	6938.272	-8465	6938.272	-1870
6938.273	-6142.5	6938.273	-8055	6938.273	-1650	6938.273	-8437.5	6938.273	-1847.5
6938.274	-6092.5	6938.274	-8017.5	6938.274	-1957.5	6938.274	-8412.5	6938.274	-1847.5
6938.275	-6082.5	6938.275	-8042.5	6938.275	-1950	6938.275	-8452.5	6938.275	-1860
6938.276	-6137.5	6938.276	-8037.5	6938.276	-2047.5	6938.276	-8482.5	6938.276	-1842.5
6938.277	-6180	6938.277	-7960	6938.277	-2327.5	6938.277	-8497.5	6938.277	-1830
6938.278	-6277.5	6938.278	-8027.5	6938.278	-2552.5	6938.278	-8612.5	6938.278	-1832.5
6938.279	-6282.5	6938.279	-8020	6938.279	-2672.5	6938.279	-8707.5	6938.279	-1820
6938.28	-6270	6938.28	-8005	6938.28	-2810	6938.28	-8735	6938.28	-1797.5
6938.281	-6280	6938.281	-7990	6938.281	-2847.5	6938.281	-8672.5	6938.281	-1807.5
6938.282	-6360	6938.282	-7947.5	6938.282	-2675	6938.282	-8735	6938.282	-1795
6938.283	-6297.5	6938.283	-7905	6938.283	-2770	6938.283	-8590	6938.283	-1782.5
6938.284	-6220	6938.284	-7832.5	6938.284	-2680	6938.284	-8560	6938.284	-1780
6938.285	-6062.5	6938.285	-7730	6938.285	-2370	6938.285	-8472.5	6938.285	-1760
6938.286	-5987.5	6938.286	-7675	6938.286	-2177.5	6938.286	-8357.5	6938.286	-1757.5
6938.287	-5790	6938.287	-7607.5	6938.287	-1937.5	6938.287	-8260	6938.287	-1740
6938.288	-5542.5	6938.288	-7482.5	6938.288	-1660	6938.288	-8147.5	6938.288	-1705
6938.289	-5482.5	6938.289	-7487.5	6938.289	-1635	6938.289	-7995	6938.289	-1722.5
6938.29	-5302.5	6938.29	-7347.5	6938.29	-1382.5	6938.29	-7875	6938.29	-1725
6938.291	-5212.5	6938.291	-7255	6938.291	-1215	6938.291	-7740	6938.291	-1707.5
6938.292	-5132.5	6938.292	-7307.5	6938.292	-1137.5	6938.292	-7707.5	6938.292	-1672.5
6938.293	-5075	6938.293	-7225	6938.293	-927.5	6938.293	-7615	6938.293	-1677.5
6938.294	-5112.5	6938.294	-7162.5	6938.294	-1085	6938.294	-7567.5	6938.294	-1665
6938.295	-5140	6938.295	-7137.5	6938.295	-1380	6938.295	-7587.5	6938.295	-1655
6938.296	-5110	6938.296	-7122.5	6938.296	-1515	6938.296	-7615	6938.296	-1647.5
6938.297	-5207.5	6938.297	-7195	6938.297	-1545	6938.297	-7677.5	6938.297	-1637.5
6938.298	-5222.5	6938.298	-7155	6938.298	-1870	6938.298	-7715	6938.298	-1625
6938.299	-5372.5	6938.299	-7120	6938.299	-1980	6938.299	-7840	6938.299	-1622.5
6938.3	-5402.5	6938.3	-7150	6938.3	-2092.5	6938.3	-7807.5	6938.3	-1632.5
6938.301	-5350	6938.301	-7110	6938.301	-2195	6938.301	-7812.5	6938.301	-1602.5
6938.302	-5372.5	6938.302	-7055	6938.302	-2050	6938.302	-7830	6938.302	-1602.5
6938.303	-5360	6938.303	-6980	6938.303	-2185	6938.303	-7700	6938.303	-1607.5
6938.304	-5205	6938.304	-6962.5	6938.304	-1935	6938.304	-7662.5	6938.304	-1592.5
6938.305	-5132.5	6938.305	-6850	6938.305	-1695	6938.305	-7422.5	6938.305	-1585
6938.306	-5010	6938.306	-6782.5	6938.306	-1495	6938.306	-7407.5	6938.306	-1562.5
6938.307	-4815	6938.307	-6730	6938.307	-1275	6938.307	-7255	6938.307	-1557.5
6938.308	-4645	6938.308	-6740	6938.308	-1042.5	6938.308	-7135	6938.308	-1562.5
6938.309	-4515	6938.309	-6670	6938.309	-897.5	6938.309	-7067.5	6938.309	-1515
6938.31	-4392.5	6938.31	-6610	6938.31	-830	6938.31	-6922.5	6938.31	-1512.5
6938.311	-4242.5	6938.311	-6452.5	6938.311	-562.5	6938.311	-6820	6938.311	-1515
6938.312	-4202.5	6938.312	-6405	6938.312	-592.5	6938.312	-6832.5	6938.312	-1500
6938.313	-4192.5	6938.313	-6420	6938.313	-557.5	6938.313	-6727.5	6938.313	-1477.5
6938.314	-4172.5	6938.314	-6327.5	6938.314	-665	6938.314	-6707.5	6938.314	-1472.5
6938.315	-4207.5	6938.315	-6357.5	6938.315	-877.5	6938.315	-6752.5	6938.315	-1475
6938.316	-4350	6938.316	-6345	6938.316	-1110	6938.316	-6852.5	6938.316	-1455
6938.317	-4282.5	6938.317	-6370	6938.317	-1287.5	6938.317	-6850	6938.317	-1462.5
6938.318	-4445	6938.318	-6345	6938.318	-1522.5	6938.318	-6915	6938.318	-1435
6938.319	-4527.5	6938.319	-6435	6938.319	-1752.5	6938.319	-7000	6938.319	-1432.5
6938.32	-4585	6938.32	-6440	6938.32	-1880	6938.32	-7030	6938.32	-1437.5
6938.321	-4667.5	6938.321	-6357.5	6938.321	-2072.5	6938.321	-7135	6938.321	-1452.5
6938.322	-4682.5	6938.322	-6327.5	6938.322	-1960	6938.322	-7030	6938.322	-1445
6938.323	-4610	6938.323	-6365	6938.323	-2027.5	6938.323	-7017.5	6938.323	-1410
6938.324	-4467.5	6938.324	-6292.5	6938.324	-1870	6938.324	-6997.5	6938.324	-1410
6938.325	-4422.5	6938.325	-6185	6938.325	-1767.5	6938.325	-6795	6938.325	-1427.5
6938.326	-4255	6938.326	-6157.5	6938.326	-1547.5	6938.326	-6767.5	6938.326	-1410
6938.327	-4255	6938.327	-6020	6938.327	-1255	6938.327	-6692.5	6938.327	-1412.5
6938.328	-4007.5	6938.328	-5987.5	6938.328	-1030	6938.328	-6497.5	6938.328	-1387.5
6938.329	-3952.5	6938.329	-6007.5	6938.329	-930	6938.329	-6407.5	6938.329	-1367.5
6938.33	-3815	6938.33	-5870	6938.33	-860	6938.33	-6327.5	6938.33	-1372.5
6938.331	-3760	6938.331	-5785	6938.331	-807.5	6938.331	-6255	6938.331	-1360
6938.332	-3715	6938.332	-5817.5	6938.332	-715	6938.332	-6255	6938.332	-1362.5
6938.333	-3597.5	6938.333	-5812.5	6938.333	-595	6938.333	-6172.5	6938.333	-1355
6938.334	-3677.5	6938.334	-5775	6938.334	-685	6938.334	-6212.5	6938.334	-1365
6938.335	-3740	6938.335	-5837.5	6938.335	-1062.5	6938.335	-6232.5	6938.335	-1332.5
6938.336	-3755	6938.336	-5812.5	6938.336	-1127.5	6938.336	-6270	6938.336	-1337.5
6938.337	-3892.5	6938.337	-5870	6938.337	-1395	6938.337	-6312.5	6938.337	-1345
6938.338	-4007.5	6938.338	-5870	6938.338	-1587.5	6938.338	-6420	6938.338	-1350
6938.339	-4075	6938.339	-5860	6938.339	-1785	6938.339	-6557.5	6938.339	-1315
6938.34	-4197.5	6938.34	-5875	6938.34	-2052.5	6938.34	-6622.5	6938.34	-1342.5
6938.341	-4262.5	6938.341	-5902.5	6938.341	-2110	6938.341	-6697.5	6938.341	-1355
6938.342	-4267.5	6938.342	-5895	6938.342	-2150	6938.342	-6700	6938.342	-1325
6938.343	-4282.5	6938.343	-5875	6938.343	-2202.5	6938.343	-6747.5	6938.343	-1297.5
6938.344	-4272.5	6938.344	-5865	6938.344	-2042.5	6938.344	-6682.5	6938.344	-1310
6938.345	-4187.5	6938.345	-5747.5	6938.345	-1762.5	6938.345	-6632.5	6938.345	-1292.5
6938.346	-4077.5	6938.346	-5702.5	6938.346	-1537.5	6938.346	-6590	6938.346	-1255
6938.347	-3987.5	6938.347	-5702.5	6938.347	-1460	6938.347	-6492.5	6938.347	-1262.5
6938.348	-3922.5	6938.348	-5625	6938.348	-1405	6938.348	-6275	6938.348	-1252.5
6938.349	-3772.5	6938.349	-5567.5	6938.349	-1312.5	6938.349	-6212.5	6938.349	-1227.5
6938.35	-3682.5	6938.35	-5530	6938.35	-1117.5	6938.35	-6197.5	6938.35	-1250
6938.351	-3610	6938.351	-5507.5	6938.351	-920	6938.351	-6102.5	6938.351	-1235
6938.352	-3580	6938.352	-5507.5	6938.352	-932.5	6938.352	-6040	6938.352	-1205
6938.353	-3532.5	6938.353	-5492.5	6938.353	-942.5	6938.353	-5942.5	6938.353	-1197.5
6938.354	-3480	6938.354	-5415	6938.354	-1167.5	6938.354	-5947.5	6938.354	-1172.5
6938.355	-3520	6938.355	-5495	6938.355	-1255	6938.355	-6060	6938.355	-1155
6938.356	-3660	6938.356	-5442.5	6938.356	-1565	6938.356	-6082.5	6938.356	-1157.5
6938.357	-3742.5	6938.357	-5462.5	6938.357	-1740	6938.357	-6125	6938.357	-1137.5
6938.358	-3962.5	6938.358	-5447.5	6938.358	-2035	6938.358	-6202.5	6938.358	-1137.5
6938.359	-4075	6938.359	-5470	6938.359	-2177.5	6938.359	-6252.5	6938.359	-1097.5
6938.36	-4155	6938.36	-5432.5	6938.36	-2527.5	6938.36	-6257.5	6938.36	-1072.5
6938.361	-4255	6938.361	-5377.5	6938.361	-2625	6938.361	-6335	6938.361	-1050
6938.362	-4262.5	6938.362	-5385	6938.362	-2780	6938.362	-6237.5	6938.362	-1045
6938.363	-4300	6938.363	-5312.5	6938.363	-2755	6938.363	-6217.5	6938.363	-1042.5
6938.364	-4250	6938.364	-5235	6938.364	-2632.5	6938.364	-6080	6938.364	-1037.5
6938.365	-4167.5	6938.365	-5232.5	6938.365	-2472.5	6938.365	-5985	6938.365	-1007.5
6938.366	-4020	6938.366	-5172.5	6938.366	-2355	6938.366	-5842.5	6938.366	-997.5
6938.367	-3970	6938.367	-5080	6938.367	-2097.5	6938.367	-5665	6938.367	-967.5
6938.368	-3845	6938.368	-4985	6938.368	-1897.5	6938.368	-5522.5	6938.368	-977.5
6938.369	-3750	6938.369	-4870	6938.369	-1787.5	6938.369	-5410	6938.369	-932.5
6938.37	-3652.5	6938.37	-4807.5	6938.37	-1692.5	6938.37	-5280	6938.37	-932.5
6938.371	-3562.5	6938.371	-4707.5	6938.371	-1572.5	6938.371	-5165	6938.371	-905
6938.372	-3555	6938.372	-4672.5	6938.372	-1690	6938.372	-5055	6938.372	-865
6938.373	-3450	6938.373	-4572.5	6938.373	-1617.5	6938.373	-4977.5	6938.373	-850
6938.374	-3510	6938.374	-4512.5	6938.374	-1825	6938.374	-4900	6938.374	-822.5
6938.375	-3567.5	6938.375	-4500	6938.375	-1985	6938.375	-4930	6938.375	-835
6938.376	-3695	6938.376	-4477.5	6938.376	-2175	6938.376	-4812.5	6938.376	-815
6938.377	-3760	6938.377	-4407.5	6938.377	-2570	6938.377	-4857.5	6938.377	-812.5
6938.378	-3845	6938.378	-4440	6938.378	-2740	6938.378	-4957.5	6938.378	-820
6938.379	-3997.5	6938.379	-4455	6938.379	-3042.5	6938.379	-4947.5	6938.379	-802.5
6938.38	-4002.5	6938.38	-4390	6938.38	-3257.5	6938.38	-4960	6938.38	-782.5
6938.381	-4102.5	6938.381	-4387.5	6938.381	-3360	6938.381	-5010	6938.381	-780
6938.382	-4135	6938.382	-4287.5	6938.382	-3275	6938.382	-4912.5	6938.382	-765
6938.383	-4142.5	6938.383	-4355	6938.383	-3340	6938.383	-4942.5	6938.383	-742.5
6938.384	-4092.5	6938.384	-4235	6938.384	-3237.5	6938.384	-4812.5	6938.384	-750
6938.385	-4040	6938.385	-4115	6938.385	-3100	6938.385	-4737.5	6938.385	-727.5
6938.386	-3955	6938.386	-4032.5	6938.386	-2932.5	6938.386	-4582.5	6938.386	-695
6938.387	-3860	6938.387	-3895	6938.387	-2845	6938.387	-4415	6938.387	-680
6938.388	-3627.5	6938.388	-3817.5	6938.388	-2715	6938.388	-4267.5	6938.388	-697.5
6938.389	-3547.5	6938.389	-3772.5	6938.389	-2532.5	6938.389	-4130	6938.389	-722.5
6938.39	-3447.5	6938.39	-3740	6938.39	-2412.5	6938.39	-4015	6938.39	-672.5
6938.391	-3340	6938.391	-3637.5	6938.391	-2227.5	6938.391	-3895	6938.391	-677.5
6938.392	-3315	6938.392	-3562.5	6938.392	-2230	6938.392	-3877.5	6938.392	-655
6938.393	-3257.5	6938.393	-3445	6938.393	-2177.5	6938.393	-3777.5	6938.393	-645
6938.394	-3340	6938.394	-3397.5	6938.394	-2360	6938.394	-3767.5	6938.394	-665
6938.395	-3302.5	6938.395	-3460	6938.395	-2760	6938.395	-3757.5	6938.395	-635
6938.396	-3467.5	6938.396	-3395	6938.396	-2935	6938.396	-3797.5	6938.396	-612.5
6938.397	-3420	6938.397	-3432.5	6938.397	-3147.5	6938.397	-3810	6938.397	-620
6938.398	-3590	6938.398	-3387.5	6938.398	-3387.5	6938.398	-3832.5	6938.398	-590
6938.399	-3665	6938.399	-3390	6938.399	-3565	6938.399	-3887.5	6938.399	-582.5
6938.4	-3712.5	6938.4	-3447.5	6938.4	-3777.5	6938.4	-3932.5	6938.4	-612.5
6938.401	-3752.5	6938.401	-3380	6938.401	-4050	6938.401	-3992.5	6938.401	-590
6938.402	-3795	6938.402	-3287.5	6938.402	-4017.5	6938.402	-3945	6938.402	-575
6938.403	-3742.5	6938.403	-3352.5	6938.403	-4065	6938.403	-3895	6938.403	-572.5
6938.404	-3762.5	6938.404	-3272.5	6938.404	-3960	6938.404	-3862.5	6938.404	-552.5
6938.405	-3650	6938.405	-3262.5	6938.405	-3887.5	6938.405	-3705	6938.405	-537.5
6938.406	-3447.5	6938.406	-3162.5	6938.406	-3767.5	6938.406	-3572.5	6938.406	-547.5
6938.407	-3377.5	6938.407	-3062.5	6938.407	-3480	6938.407	-3482.5	6938.407	-535
6938.408	-3175	6938.408	-2982.5	6938.408	-3245	6938.408	-3345	6938.408	-545
6938.409	-3105	6938.409	-2900	6938.409	-3192.5	6938.409	-3237.5	6938.409	-512.5
6938.41	-2915	6938.41	-2870	6938.41	-2950	6938.41	-3155	6938.41	-525
6938.411	-2815	6938.411	-2850	6938.411	-2952.5	6938.411	-3052.5	6938.411	-505
6938.412	-2757.5	6938.412	-2875	6938.412	-3017.5	6938.412	-3012.5	6938.412	-497.5
6938.413	-2720	6938.413	-2792.5	6938.413	-2950	6938.413	-2872.5	6938.413	-502.5
6938.414	-2665	6938.414	-2747.5	6938.414	-3005	6938.414	-2872.5	6938.414	-442.5
6938.415	-2710	6938.415	-2802.5	6938.415	-3295	6938.415	-2887.5	6938.415	-472.5
6938.416	-2750	6938.416	-2740	6938.416	-3425	6938.416	-2955	6938.416	-467.5
6938.417	-2835	6938.417	-2797.5	6938.417	-3602.5	6938.417	-3007.5	6938.417	-482.5
6938.418	-2975	6938.418	-2817.5	6938.418	-3950	6938.418	-3052.5	6938.418	-480
6938.419	-3057.5	6938.419	-2890	6938.419	-4172.5	6938.419	-3100	6938.419	-460
6938.42	-3125	6938.42	-2852.5	6938.42	-4317.5	6938.42	-3195	6938.42	-465
6938.421	-3237.5	6938.421	-2800	6938.421	-4465	6938.421	-3210	6938.421	-460
6938.422	-3157.5	6938.422	-2785	6938.422	-4485	6938.422	-3197.5	6938.422	-440
6938.423	-3167.5	6938.423	-2747.5	6938.423	-4512.5	6938.423	-3240	6938.423	-432.5
6938.424	-3142.5	6938.424	-2700	6938.424	-4535	6938.424	-3157.5	6938.424	-462.5
6938.425	-2932.5	6938.425	-2742.5	6938.425	-4222.5	6938.425	-3102.5	6938.425	-422.5
6938.426	-2827.5	6938.426	-2652.5	6938.426	-4052.5	6938.426	-2992.5	6938.426	-430
6938.427	-2677.5	6938.427	-2602.5	6938.427	-4042.5	6938.427	-2862.5	6938.427	-442.5
6938.428	-2552.5	6938.428	-2520	6938.428	-3670	6938.428	-2682.5	6938.428	-457.5
6938.429	-2472.5	6938.429	-2502.5	6938.429	-3562.5	6938.429	-2667.5	6938.429	-442.5
6938.43	-2367.5	6938.43	-2402.5	6938.43	-3370	6938.43	-2537.5	6938.43	-437.5
6938.431	-2225	6938.431	-2362.5	6938.431	-3285	6938.431	-2430	6938.431	-420
6938.432	-2135	6938.432	-2400	6938.432	-3460	6938.432	-2425	6938.432	-377.5
6938.433	-2117.5	6938.433	-2280	6938.433	-3267.5	6938.433	-2307.5	6938.433	-377.5
6938.434	-2037.5	6938.434	-2315	6938.434	-3345	6938.434	-2332.5	6938.434	-387.5
6938.435	-2142.5	6938.435	-2367.5	6938.435	-3557.5	6938.435	-2345	6938.435	-390
6938.436	-2190	6938.436	-2377.5	6938.436	-3650	6938.436	-2357.5	6938.436	-395
6938.437	-2205	6938.437	-2367.5	6938.437	-3967.5	6938.437	-2422.5	6938.437	-395
6938.438	-2392.5	6938.438	-2330	6938.438	-4227.5	6938.438	-2610	6938.438	-407.5
6938.439	-2485	6938.439	-2372.5	6938.439	-4515	6938.439	-2630	6938.439	-400
6938.44	-2507.5	6938.44	-2327.5	6938.44	-4757.5	6938.44	-2655	6938.44	-370
6938.441	-2522.5	6938.441	-2367.5	6938.441	-4830	6938.441	-2782.5	6938.441	-367.5
6938.442	-2452.5	6938.442	-2312.5	6938.442	-4710	6938.442	-2675	6938.442	-357.5
6938.443	-2492.5	6938.443	-2340	6938.443	-4807.5	6938.443	-2727.5	6938.443	-345
6938.444	-2455	6938.444	-2325	6938.444	-4690	6938.444	-2707.5	6938.444	-367.5
6938.445	-2390	6938.445	-2305	6938.445	-4310	6938.445	-2600	6938.445	-367.5
6938.446	-2315	6938.446	-2255	6938.446	-4252.5	6938.446	-2435	6938.446	-367.5
6938.447	-2145	6938.447	-2160	6938.447	-3910	6938.447	-2270	6938.447	-342.5
6938.448	-2035	6938.448	-2165	6938.448	-3787.5	6938.448	-2230	6938.448	-345
6938.449	-1872.5	6938.449	-2047.5	6938.449	-3697.5	6938.449	-2160	6938.449	-337.5
6938.45	-1752.5	6938.45	-1997.5	6938.45	-3522.5	6938.45	-2050	6938.45	-312.5
6938.451	-1707.5	6938.451	-1982.5	6938.451	-3437.5	6938.451	-2030	6938.451	-355
6938.452	-1697.5	6938.452	-1905	6938.452	-3505	6938.452	-1982.5	6938.452	-300
6938.453	-1545	6938.453	-1865	6938.453	-3450	6938.453	-1915	6938.453	-335
6938.454	-1605	6938.454	-1872.5	6938.454	-3485	6938.454	-1887.5	6938.454	-312.5
6938.455	-1640	6938.455	-1925	6938.455	-3577.5	6938.455	-1940	6938.455	-332.5
6938.456	-1730	6938.456	-1902.5	6938.456	-3830	6938.456	-2007.5	6938.456	-315
6938.457	-1730	6938.457	-1940	6938.457	-4002.5	6938.457	-2042.5	6938.457	-322.5
6938.458	-1812.5	6938.458	-1962.5	6938.458	-4340	6938.458	-2102.5	6938.458	-302.5
6938.459	-1915	6938.459	-2030	6938.459	-4502.5	6938.459	-2142.5	6938.459	-300
6938.46	-1962.5	6938.46	-2067.5	6938.46	-4660	6938.46	-2265	6938.46	-332.5
6938.461	-1987.5	6938.461	-2040	6938.461	-4787.5	6938.461	-2357.5	6938.461	-292.5
6938.462	-2012.5	6938.462	-1990	6938.462	-4717.5	6938.462	-2285	6938.462	-267.5
6938.463	-2032.5	6938.463	-1942.5	6938.463	-4787.5	6938.463	-2330	6938.463	-302.5
6938.464	-1935	6938.464	-1902.5	6938.464	-4697.5	6938.464	-2210	6938.464	-277.5
6938.465	-1835	6938.465	-1895	6938.465	-4527.5	6938.465	-2130	6938.465	-312.5
6938.466	-1765	6938.466	-1790	6938.466	-4355	6938.466	-1987.5	6938.466	-317.5
6938.467	-1680	6938.467	-1817.5	6938.467	-4170	6938.467	-1875	6938.467	-307.5
6938.468	-1457.5	6938.468	-1700	6938.468	-3767.5	6938.468	-1775	6938.468	-285
6938.469	-1415	6938.469	-1700	6938.469	-3675	6938.469	-1697.5	6938.469	-292.5
6938.47	-1307.5	6938.47	-1617.5	6938.47	-3567.5	6938.47	-1667.5	6938.47	-275
6938.471	-1142.5	6938.471	-1620	6938.471	-3315	6938.471	-1482.5	6938.471	-265
6938.472	-1157.5	6938.472	-1560	6938.472	-3315	6938.472	-1460	6938.472	-245
6938.473	-1005	6938.473	-1537.5	6938.473	-3330	6938.473	-1430	6938.473	-257.5
6938.474	-1052.5	6938.474	-1517.5	6938.474	-3495	6938.474	-1475	6938.474	-237.5
6938.475	-1072.5	6938.475	-1485	6938.475	-3667.5	6938.475	-1552.5	6938.475	-270
6938.476	-1135	6938.476	-1510	6938.476	-3762.5	6938.476	-1580	6938.476	-245
6938.477	-1192.5	6938.477	-1472.5	6938.477	-3900	6938.477	-1562.5	6938.477	-247.5
6938.478	-1285	6938.478	-1540	6938.478	-4262.5	6938.478	-1707.5	6938.478	-250
6938.479	-1472.5	6938.479	-1647.5	6938.479	-4325	6938.479	-1802.5	6938.479	-227.5
6938.48	-1497.5	6938.48	-1627.5	6938.48	-4532.5	6938.48	-1850	6938.48	-237.5
6938.481	-1602.5	6938.481	-1685	6938.481	-4722.5	6938.481	-1872.5	6938.481	-257.5
6938.482	-1575	6938.482	-1632.5	6938.482	-4625	6938.482	-1877.5	6938.482	-235
6938.483	-1617.5	6938.483	-1592.5	6938.483	-4685	6938.483	-1900	6938.483	-210
6938.484	-1517.5	6938.484	-1532.5	6938.484	-4697.5	6938.484	-1830	6938.484	-227.5
6938.485	-1500	6938.485	-1467.5	6938.485	-4400	6938.485	-1680	6938.485	-205
6938.486	-1400	6938.486	-1430	6938.486	-4147.5	6938.486	-1637.5	6938.486	-227.5
6938.487	-1340	6938.487	-1347.5	6938.487	-3917.5	6938.487	-1532.5	6938.487	-237.5
6938.488	-1107.5	6938.488	-1297.5	6938.488	-3700	6938.488	-1330	6938.488	-210
6938.489	-1015	6938.489	-1272.5	6938.489	-3647.5	6938.489	-1232.5	6938.489	-212.5
6938.49	-912.5	6938.49	-1230	6938.49	-3397.5	6938.49	-1212.5	6938.49	-205
6938.491	-795	6938.491	-1092.5	6938.491	-3155	6938.491	-1095	6938.491	-202.5
6938.492	-815	6938.492	-1170	6938.492	-3305	6938.492	-1127.5	6938.492	-210
6938.493	-687.5	6938.493	-1097.5	6938.493	-3172.5	6938.493	-1037.5	6938.493	-215
6938.494	-690	6938.494	-1137.5	6938.494	-3385	6938.494	-1027.5	6938.494	-212.5
6938.495	-762.5	6938.495	-1140	6938.495	-3580	6938.495	-1132.5	6938.495	-225
6938.496	-757.5	6938.496	-1195	6938.496	-3585	6938.496	-1127.5	6938.496	-205
6938.497	-840	6938.497	-1177.5	6938.497	-3775	6938.497	-1260	6938.497	-197.5
6938.498	-970	6938.498	-1160	6938.498	-4007.5	6938.498	-1307.5	6938.498	-227.5
6938.499	-1022.5	6938.499	-1175	6938.499	-4200	6938.499	-1352.5	6938.499	-200
6938.5	-1077.5	6938.5	-1192.5	6938.5	-4425	6938.5	-1470	6938.5	-197.5
6938.501	-1205	6938.501	-1185	6938.501	-4557.5	6938.501	-1482.5	6938.501	-207.5
6938.502	-1262.5	6938.502	-1202.5	6938.502	-4525	6938.502	-1497.5	6938.502	-207.5
6938.503	-1290	6938.503	-1225	6938.503	-4567.5	6938.503	-1560	6938.503	-202.5
6938.504	-1242.5	6938.504	-1172.5	6938.504	-4515	6938.504	-1437.5	6938.504	-190
6938.505	-1120	6938.505	-1085	6938.505	-4145	6938.505	-1287.5	6938.505	-177.5
6938.506	-997.5	6938.506	-1075	6938.506	-3960	6938.506	-1232.5	6938.506	-172.5
6938.507	-960	6938.507	-1045	6938.507	-3780	6938.507	-1187.5	6938.507	-170
6938.508	-777.5	6938.508	-992.5	6938.508	-3532.5	6938.508	-1032.5	6938.508	-165
6938.509	-727.5	6938.509	-960	6938.509	-3427.5	6938.509	-855	6938.509	-167.5
6938.51	-592.5	6938.51	-872.5	6938.51	-3185	6938.51	-817.5	6938.51	-182.5
6938.511	-425	6938.511	-817.5	6938.511	-3065	6938.511	-740	6938.511	-162.5
6938.512	-377.5	6938.512	-825	6938.512	-3085	6938.512	-702.5	6938.512	-175
6938.513	-352.5	6938.513	-732.5	6938.513	-3032.5	6938.513	-655	6938.513	-180
6938.514	-362.5	6938.514	-740	6938.514	-3062.5	6938.514	-620	6938.514	-142.5
6938.515	-395	6938.515	-760	6938.515	-3230	6938.515	-697.5	6938.515	-187.5
6938.516	-522.5	6938.516	-740	6938.516	-3512.5	6938.516	-745	6938.516	-170
6938.517	-542.5	6938.517	-732.5	6938.517	-3550	6938.517	-797.5	6938.517	-175
6938.518	-657.5	6938.518	-797.5	6938.518	-3767.5	6938.518	-915	6938.518	-165
6938.519	-782.5	6938.519	-795	6938.519	-3960	6938.519	-940	6938.519	-160
6938.52	-792.5	6938.52	-745	6938.52	-4105	6938.52	-985	6938.52	-162.5
6938.521	-960	6938.521	-720	6938.521	-4335	6938.521	-1070	6938.521	-150
6938.522	-952.5	6938.522	-675	6938.522	-4197.5	6938.522	-977.5	6938.522	-152.5
6938.523	-950	6938.523	-665	6938.523	-4207.5	6938.523	-1047.5	6938.523	-170
6938.524	-927.5	6938.524	-672.5	6938.524	-4127.5	6938.524	-1000	6938.524	-160
6938.525	-775	6938.525	-662.5	6938.525	-3965	6938.525	-910	6938.525	-185
6938.526	-685	6938.526	-622.5	6938.526	-3660	6938.526	-760	6938.526	-177.5
6938.527	-620	6938.527	-542.5	6938.527	-3530	6938.527	-697.5	6938.527	-165
6938.528	-445	6938.528	-477.5	6938.528	-3235	6938.528	-585	6938.528	-182.5
6938.529	-355	6938.529	-470	6938.529	-3060	6938.529	-500	6938.529	-165
6938.53	-207.5	6938.53	-397.5	6938.53	-2945	6938.53	-400	6938.53	-175
6938.531	-107.5	6938.531	-305	6938.531	-2795	6938.531	-317.5	6938.531	-175
6938.532	-187.5	6938.532	-317.5	6938.532	-2867.5	6938.532	-297.5	6938.532	-145
6938.533	-137.5	6938.533	-297.5	6938.533	-2822.5	6938.533	-235	6938.533	-157.5
6938.534	-112.5	6938.534	-255	6938.534	-2755	6938.534	-247.5	6938.534	-165
6938.535	-97.5	6938.535	-280	6938.535	-2935	6938.535	-300	6938.535	-157.5
6938.536	-282.5	6938.536	-377.5	6938.536	-3270	6938.536	-297.5	6938.536	-185
6938.537	-317.5	6938.537	-367.5	6938.537	-3452.5	6938.537	-367.5	6938.537	-160
6938.538	-390	6938.538	-340	6938.538	-3640	6938.538	-450	6938.538	-155
6938.539	-475	6938.539	-400	6938.539	-3822.5	6938.539	-490	6938.539	-157.5
6938.54	-602.5	6938.54	-425	6938.54	-3935	6938.54	-552.5	6938.54	-155
6938.541	-672.5	6938.541	-442.5	6938.541	-4030	6938.541	-582.5	6938.541	-175
6938.542	-635	6938.542	-390	6938.542	-3942.5	6938.542	-555	6938.542	-185
6938.543	-670	6938.543	-345	6938.543	-3975	6938.543	-590	6938.543	-172.5
6938.544	-655	6938.544	-345	6938.544	-3800	6938.544	-582.5	6938.544	-162.5
6938.545	-512.5	6938.545	-325	6938.545	-3770	6938.545	-550	6938.545	-175
6938.546	-370	6938.546	-230	6938.546	-3495	6938.546	-450	6938.546	-157.5
6938.547	-275	6938.547	-192.5	6938.547	-3207.5	6938.547	-372.5	6938.547	-165
6938.548	-132.5	6938.548	-82.5	6938.548	-2867.5	6938.548	-212.5	6938.548	-182.5
6938.549	-87.5	6938.549	-45	6938.549	-2797.5	6938.549	-147.5	6938.549	-160
6938.55	22.5	6938.55	30	6938.55	-2667.5	6938.55	-50	6938.55	-167.5
6938.551	137.5	6938.551	-15	6938.551	-2542.5	6938.551	87.5	6938.551	-140
6938.552	185	6938.552	17.5	6938.552	-2452.5	6938.552	67.5	6938.552	-125
6938.553	262.5	6938.553	50	6938.553	-2397.5	6938.553	125	6938.553	-157.5
6938.554	300	6938.554	57.5	6938.554	-2400	6938.554	137.5	6938.554	-132.5
6938.555	272.5	6938.555	52.5	6938.555	-2612.5	6938.555	125	6938.555	-142.5
6938.556	212.5	6938.556	105	6938.556	-2790	6938.556	30	6938.556	-182.5
6938.557	125	6938.557	50	6938.557	-2990	6938.557	-12.5	6938.557	-142.5
6938.558	17.5	6938.558	15	6938.558	-3202.5	6938.558	-142.5	6938.558	-167.5
6938.559	-130	6938.559	10	6938.559	-3490	6938.559	-182.5	6938.559	-137.5
6938.56	-127.5	6938.56	-2.5	6938.56	-3522.5	6938.56	-305	6938.56	-145
6938.561	-235	6938.561	-17.5	6938.561	-3715	6938.561	-312.5	6938.561	-137.5
6938.562	-230	6938.562	-65	6938.562	-3647.5	6938.562	-232.5	6938.562	-155
6938.563	-237.5	6938.563	-20	6938.563	-3797.5	6938.563	-277.5	6938.563	-157.5
6938.564	-277.5	6938.564	2.5	6938.564	-3507.5	6938.564	-192.5	6938.564	-140
6938.565	-165	6938.565	27.5	6938.565	-3392.5	6938.565	-180	6938.565	-152.5
6938.566	-32.5	6938.566	135	6938.566	-3072.5	6938.566	-42.5	6938.566	-157.5
6938.567	35	6938.567	182.5	6938.567	-2980	6938.567	40	6938.567	-152.5
6938.568	190	6938.568	212.5	6938.568	-2600	6938.568	230	6938.568	-130
6938.569	265	6938.569	302.5	6938.569	-2450	6938.569	275	6938.569	-120
6938.57	380	6938.57	247.5	6938.57	-2340	6938.57	300	6938.57	-115
6938.571	487.5	6938.571	305	6938.571	-2200	6938.571	392.5	6938.571	-97.5
6938.572	510	6938.572	327.5	6938.572	-2075	6938.572	402.5	6938.572	-127.5
6938.573	580	6938.573	385	6938.573	-2207.5	6938.573	472.5	6938.573	-87.5
6938.574	527.5	6938.574	325	6938.574	-2310	6938.574	445	6938.574	-112.5
6938.575	537.5	6938.575	332.5	6938.575	-2560	6938.575	425	6938.575	-90
6938.576	505	6938.576	297.5	6938.576	-2685	6938.576	407.5	6938.576	-92.5
6938.577	512.5	6938.577	287.5	6938.577	-2740	6938.577	320	6938.577	-102.5
6938.578	295	6938.578	215	6938.578	-3175	6938.578	202.5	6938.578	-75
6938.579	142.5	6938.579	217.5	6938.579	-3267.5	6938.579	162.5	6938.579	-117.5
6938.58	87.5	6938.58	185	6938.58	-3340	6938.58	117.5	6938.58	-115
6938.581	57.5	6938.581	177.5	6938.581	-3452.5	6938.581	7.5	6938.581	-102.5
6938.582	17.5	6938.582	205	6938.582	-3380	6938.582	-17.5	6938.582	-117.5
6938.583	7.5	6938.583	200	6938.583	-3485	6938.583	12.5	6938.583	-147.5
6938.584	-37.5	6938.584	217.5	6938.584	-3442.5	6938.584	35	6938.584	-112.5
6938.585	97.5	6938.585	355	6938.585	-3127.5	6938.585	95	6938.585	-100
6938.586	220	6938.586	387.5	6938.586	-2867.5	6938.586	182.5	6938.586	-102.5
6938.587	320	6938.587	440	6938.587	-2742.5	6938.587	275	6938.587	-112.5
6938.588	530	6938.588	435	6938.588	-2335	6938.588	420	6938.588	-120
6938.589	527.5	6938.589	417.5	6938.589	-2255	6938.589	500	6938.589	-110
6938.59	610	6938.59	452.5	6938.59	-2065	6938.59	545	6938.59	-135
6938.591	755	6938.591	490	6938.591	-2017.5	6938.591	627.5	6938.591	-110
6938.592	732.5	6938.592	500	6938.592	-2130	6938.592	635	6938.592	-125
6938.593	900	6938.593	527.5	6938.593	-1957.5	6938.593	677.5	6938.593	-110
6938.594	842.5	6938.594	492.5	6938.594	-1890	6938.594	742.5	6938.594	-90
6938.595	752.5	6938.595	567.5	6938.595	-2162.5	6938.595	670	6938.595	-107.5
6938.596	712.5	6938.596	490	6938.596	-2237.5	6938.596	620	6938.596	-105
6938.597	647.5	6938.597	457.5	6938.597	-2472.5	6938.597	545	6938.597	-92.5
6938.598	550	6938.598	420	6938.598	-2850	6938.598	372.5	6938.598	-107.5
6938.599	525	6938.599	450	6938.599	-2840	6938.599	352.5	6938.599	-117.5
6938.6	365	6938.6	360	6938.6	-3077.5	6938.6	205	6938.6	-92.5
6938.601	227.5	6938.601	380	6938.601	-3205	6938.601	165	6938.601	-95
6938.602	205	6938.602	342.5	6938.602	-3032.5	6938.602	182.5	6938.602	-107.5
6938.603	235	6938.603	320	6938.603	-3032.5	6938.603	162.5	6938.603	-107.5
6938.604	235	6938.604	350	6938.604	-3077.5	6938.604	170	6938.604	-105
6938.605	267.5	6938.605	467.5	6938.605	-2782.5	6938.605	292.5	6938.605	-117.5
6938.606	425	6938.606	452.5	6938.606	-2575	6938.606	337.5	6938.606	-97.5
6938.607	510	6938.607	495	6938.607	-2532.5	6938.607	452.5	6938.607	-112.5
6938.608	667.5	6938.608	502.5	6938.608	-2190	6938.608	540	6938.608	-112.5
6938.609	770	6938.609	630	6938.609	-2197.5	6938.609	625	6938.609	-112.5
6938.61	827.5	6938.61	665	6938.61	-1985	6938.61	695	6938.61	-107.5
6938.611	842.5	6938.611	657.5	6938.611	-1825	6938.611	805	6938.611	-120
6938.612	865	6938.612	630	6938.612	-1957.5	6938.612	765	6938.612	-102.5
6938.613	847.5	6938.613	650	6938.613	-1805	6938.613	792.5	6938.613	-112.5
6938.614	917.5	6938.614	717.5	6938.614	-1795	6938.614	822.5	6938.614	-115
6938.615	855	6938.615	580	6938.615	-2017.5	6938.615	770	6938.615	-97.5
6938.616	747.5	6938.616	642.5	6938.616	-2165	6938.616	730	6938.616	-112.5
6938.617	542.5	6938.617	470	6938.617	-2530	6938.617	542.5	6938.617	-110
6938.618	580	6938.618	490	6938.618	-2595	6938.618	472.5	6938.618	-125
6938.619	495	6938.619	512.5	6938.619	-2657.5	6938.619	407.5	6938.619	-120
6938.62	397.5	6938.62	472.5	6938.62	-2897.5	6938.62	250	6938.62	-125
6938.621	265	6938.621	405	6938.621	-3037.5	6938.621	165	6938.621	-125
6938.622	175	6938.622	370	6938.622	-3027.5	6938.622	105	6938.622	-155
6938.623	50	6938.623	207.5	6938.623	-3105	6938.623	20	6938.623	-165
6938.624	155	6938.624	295	6938.624	-3160	6938.624	137.5	6938.624	-155
6938.625	470	6938.625	545	6938.625	-2735	6938.625	372.5	6938.625	-115
6938.626	532.5	6938.626	532.5	6938.626	-2572.5	6938.626	417.5	6938.626	-145
6938.627	360	6938.627	282.5	6938.627	-2647.5	6938.627	202.5	6938.627	-235
6938.628	377.5	6938.628	205	6938.628	-2425	6938.628	245	6938.628	-200
6938.629	-7.5	6938.629	-330	6938.629	-2787.5	6938.629	-267.5	6938.629	-380
6938.63	-182.5	6938.63	-497.5	6938.63	-2740	6938.63	-362.5	6938.63	-410
6938.631	-225	6938.631	-532.5	6938.631	-2767.5	6938.631	-417.5	6938.631	-445
6938.632	-1212.5	6938.632	-1625	6938.632	-3582.5	6938.632	-1497.5	6938.632	-730
6938.633	-1432.5	6938.633	-1857.5	6938.633	-3947.5	6938.633	-1695	6938.633	-752.5
6938.634	-1210	6938.634	-1777.5	6938.634	-3837.5	6938.634	-1467.5	6938.634	-695
6938.635	-1195	6938.635	-1592.5	6938.635	-3990	6938.635	-1392.5	6938.635	-660
6938.636	-1402.5	6938.636	-1650	6938.636	-4250	6938.636	-1502.5	6938.636	-685
6938.637	-1210	6938.637	-1520	6938.637	-4227.5	6938.637	-1315	6938.637	-610
6938.638	-737.5	6938.638	-842.5	6938.638	-4097.5	6938.638	-810	6938.638	-417.5
6938.639	-842.5	6938.639	-980	6938.639	-3982.5	6938.639	-947.5	6938.639	-467.5
6938.64	-1477.5	6938.64	-1517.5	6938.64	-4610	6938.64	-1592.5	6938.64	-617.5
6938.641	-1820	6938.641	-1790	6938.641	-5000	6938.641	-1952.5	6938.641	-687.5
6938.642	-1962.5	6938.642	-1965	6938.642	-5165	6938.642	-2132.5	6938.642	-725
6938.643	-2175	6938.643	-2030	6938.643	-5282.5	6938.643	-2195	6938.643	-755
6938.644	-1862.5	6938.644	-1787.5	6938.644	-5075	6938.644	-1985	6938.644	-657.5
6938.645	-1717.5	6938.645	-1680	6938.645	-4777.5	6938.645	-1837.5	6938.645	-640
6938.646	-1850	6938.646	-1877.5	6938.646	-4782.5	6938.646	-1982.5	6938.646	-695
6938.647	-1722.5	6938.647	-1807.5	6938.647	-4605	6938.647	-1860	6938.647	-675
6938.648	-1087.5	6938.648	-1197.5	6938.648	-3930	6938.648	-1165	6938.648	-565
6938.649	-457.5	6938.649	-555	6938.649	-3305	6938.649	-475	6938.649	-402.5
6938.65	-12.5	6938.65	-360	6938.65	-2820	6938.65	-207.5	6938.65	-360
6938.651	-85	6938.651	-387.5	6938.651	-2670	6938.651	-252.5	6938.651	-392.5
6938.652	-185	6938.652	-577.5	6938.652	-2982.5	6938.652	-307.5	6938.652	-450
6938.653	-195	6938.653	-572.5	6938.653	-2755	6938.653	-372.5	6938.653	-450
6938.654	-202.5	6938.654	-650	6938.654	-2787.5	6938.654	-462.5	6938.654	-450
6938.655	-342.5	6938.655	-605	6938.655	-3075	6938.655	-522.5	6938.655	-467.5
6938.656	-485	6938.656	-772.5	6938.656	-3417.5	6938.656	-627.5	6938.656	-470
6938.657	-500	6938.657	-812.5	6938.657	-3475	6938.657	-707.5	6938.657	-475
6938.658	-635	6938.658	-810	6938.658	-3677.5	6938.658	-815	6938.658	-462.5
6938.659	-812.5	6938.659	-852.5	6938.659	-3942.5	6938.659	-880	6938.659	-487.5
6938.66	-875	6938.66	-840	6938.66	-4227.5	6938.66	-970	6938.66	-470
6938.661	-935	6938.661	-877.5	6938.661	-4322.5	6938.661	-1030	6938.661	-465
6938.662	-937.5	6938.662	-882.5	6938.662	-4187.5	6938.662	-1002.5	6938.662	-457.5
6938.663	-947.5	6938.663	-872.5	6938.663	-4147.5	6938.663	-977.5	6938.663	-472.5
6938.664	-912.5	6938.664	-825	6938.664	-4140	6938.664	-990	6938.664	-437.5
6938.665	-765	6938.665	-790	6938.665	-3700	6938.665	-865	6938.665	-437.5
6938.666	-687.5	6938.666	-700	6938.666	-3612.5	6938.666	-760	6938.666	-437.5
6938.667	-530	6938.667	-660	6938.667	-3415	6938.667	-627.5	6938.667	-435
6938.668	-340	6938.668	-577.5	6938.668	-3095	6938.668	-505	6938.668	-405
6938.669	-267.5	6938.669	-510	6938.669	-3022.5	6938.669	-415	6938.669	-402.5
6938.67	-192.5	6938.67	-425	6938.67	-2760	6938.67	-265	6938.67	-405
6938.671	-52.5	6938.671	-377.5	6938.671	-2532.5	6938.671	-127.5	6938.671	-382.5
6938.672	-22.5	6938.672	-382.5	6938.672	-2460	6938.672	-180	6938.672	-385
6938.673	-17.5	6938.673	-305	6938.673	-2382.5	6938.673	-120	6938.673	-387.5
6938.674	57.5	6938.674	-327.5	6938.674	-2362.5	6938.674	-107.5	6938.674	-372.5
6938.675	-12.5	6938.675	-412.5	6938.675	-2665	6938.675	-107.5	6938.675	-370
6938.676	-112.5	6938.676	-337.5	6938.676	-2752.5	6938.676	-227.5	6938.676	-397.5
6938.677	-127.5	6938.677	-357.5	6938.677	-2952.5	6938.677	-217.5	6938.677	-367.5
6938.678	-237.5	6938.678	-287.5	6938.678	-3277.5	6938.678	-275	6938.678	-377.5
6938.679	-290	6938.679	-332.5	6938.679	-3387.5	6938.679	-320	6938.679	-390
6938.68	-377.5	6938.68	-310	6938.68	-3555	6938.68	-387.5	6938.68	-375
6938.681	-387.5	6938.681	-340	6938.681	-3615	6938.681	-507.5	6938.681	-392.5
6938.682	-412.5	6938.682	-302.5	6938.682	-3617.5	6938.682	-367.5	6938.682	-365
6938.683	-452.5	6938.683	-340	6938.683	-3585	6938.683	-435	6938.683	-355
6938.684	-420	6938.684	-260	6938.684	-3380	6938.684	-382.5	6938.684	-367.5
6938.685	-212.5	6938.685	-105	6938.685	-3075	6938.685	-192.5	6938.685	-352.5
6938.686	-157.5	6938.686	-130	6938.686	-2942.5	6938.686	-95	6938.686	-352.5
6938.687	32.5	6938.687	-35	6938.687	-2630	6938.687	75	6938.687	-320
6938.688	215	6938.688	90	6938.688	-2322.5	6938.688	145	6938.688	-310
6938.689	220	6938.689	95	6938.689	-2215	6938.689	300	6938.689	-317.5
6938.69	442.5	6938.69	100	6938.69	-1997.5	6938.69	397.5	6938.69	-330
6938.691	587.5	6938.691	237.5	6938.691	-2010	6938.691	512.5	6938.691	-312.5
6938.692	572.5	6938.692	220	6938.692	-1970	6938.692	547.5	6938.692	-285
6938.693	630	6938.693	277.5	6938.693	-1795	6938.693	640	6938.693	-270
6938.694	675	6938.694	290	6938.694	-2007.5	6938.694	690	6938.694	-277.5
6938.695	642.5	6938.695	340	6938.695	-2027.5	6938.695	625	6938.695	-242.5
6938.696	595	6938.696	350	6938.696	-2237.5	6938.696	527.5	6938.696	-275
6938.697	612.5	6938.697	320	6938.697	-2292.5	6938.697	555	6938.697	-245
6938.698	530	6938.698	357.5	6938.698	-2560	6938.698	465	6938.698	-232.5
6938.699	350	6938.699	297.5	6938.699	-2657.5	6938.699	435	6938.699	-257.5
6938.7	237.5	6938.7	225	6938.7	-2805	6938.7	300	6938.7	-262.5
6938.701	-72.5	6938.701	117.5	6938.701	-3120	6938.701	72.5	6938.701	-285
6938.702	-380	6938.702	-177.5	6938.702	-3045	6938.702	-30	6938.702	-362.5
6938.703	-120	6938.703	50	6938.703	-3060	6938.703	312.5	6938.703	-255
6938.704	1432.5	6938.704	1697.5	6938.704	-1535	6938.704	1910	6938.704	110
6938.705	3792.5	6938.705	3875	6938.705	710	6938.705	4162.5	6938.705	585
6938.706	6585	6938.706	5965	6938.706	3810	6938.706	6132.5	6938.706	817.5
6938.707	10257.5	6938.707	8952.5	6938.707	7342.5	6938.707	9005	6938.707	1410
6938.708	16137.5	6938.708	14527.5	6938.708	12682.5	6938.708	14450	6938.708	2675
6938.709	22717.5	6938.709	21517.5	6938.709	18392.5	6938.709	21710	6938.709	4692.5
6938.71	35020	6938.71	35850	6938.71	27625	6938.71	36355	6938.71	9002.5
6938.711	45672.5	6938.711	49560	6938.711	35877.5	6938.711	50222.5	6938.711	13005
6938.712	54550	6938.712	61797.5	6938.712	41825	6938.712	62065	6938.712	16307.5
6938.713	63242.5	6938.713	72982.5	6938.713	47830	6938.713	72687.5	6938.713	18590
6938.714	73667.5	6938.714	81917.5	6938.714	52965	6938.714	81917.5	6938.714	20075
6938.715	76730	6938.715	81917.5	6938.715	38480	6938.715	81917.5	6938.715	21012.5
6938.716	71420	6938.716	81917.5	6938.716	13287.5	6938.716	81917.5	6938.716	18180
6938.717	42167.5	6938.717	71107.5	6938.717	5617.5	6938.717	26817.5	6938.717	-1567.5
6938.718	7460	6938.718	-992.5	6938.718	7622.5	6938.718	8340	6938.718	-510
6938.719	10632.5	6938.719	3952.5	6938.719	8757.5	6938.719	13570	6938.719	1617.5
6938.72	10962.5	6938.72	8615	6938.72	8725	6938.72	15105	6938.72	2307.5
6938.721	11915	6938.721	11137.5	6938.721	9312.5	6938.721	16330	6938.721	2940
6938.722	12250	6938.722	12190	6938.722	10187.5	6938.722	16827.5	6938.722	3252.5
6938.723	11502.5	6938.723	11850	6938.723	10032.5	6938.723	16185	6938.723	3257.5
6938.724	12000	6938.724	13142.5	6938.724	10182.5	6938.724	16802.5	6938.724	3707.5
6938.725	12702.5	6938.725	14090	6938.725	10840	6938.725	17470	6938.725	3997.5
6938.726	13290	6938.726	15040	6938.726	11255	6938.726	17970	6938.726	4250
6938.727	13675	6938.727	15622.5	6938.727	11600	6938.727	18327.5	6938.727	4440
6938.728	14700	6938.728	16880	6938.728	12302.5	6938.728	19347.5	6938.728	4832.5
6938.729	16365	6938.729	18747.5	6938.729	13057.5	6938.729	20970	6938.729	5322.5
6938.73	18472.5	6938.73	21185	6938.73	14337.5	6938.73	23022.5	6938.73	5925
6938.731	20595	6938.731	23450	6938.731	15365	6938.731	25035	6938.731	6355
6938.732	22410	6938.732	25370	6938.732	16067.5	6938.732	26675	6938.732	6675
6938.733	24152.5	6938.733	27052.5	6938.733	16950	6938.733	28102.5	6938.733	6905
6938.734	25480	6938.734	28360	6938.734	17545	6938.734	29095	6938.734	7042.5
6938.735	26342.5	6938.735	29157.5	6938.735	17632.5	6938.735	29695	6938.735	7047.5
6938.736	26900	6938.736	29590	6938.736	17885	6938.736	29855	6938.736	7030
6938.737	27115	6938.737	29827.5	6938.737	17775	6938.737	29870	6938.737	6957.5
6938.738	27062.5	6938.738	29707.5	6938.738	17690	6938.738	29627.5	6938.738	6857.5
6938.739	26965	6938.739	29567.5	6938.739	17327.5	6938.739	29192.5	6938.739	6762.5
6938.74	26607.5	6938.74	29212.5	6938.74	17005	6938.74	28760	6938.74	6627.5
6938.741	26215	6938.741	28790	6938.741	16642.5	6938.741	28237.5	6938.741	6487.5
6938.742	25862.5	6938.742	28285	6938.742	16342.5	6938.742	27762.5	6938.742	6327.5
6938.743	25350	6938.743	27812.5	6938.743	16022.5	6938.743	27217.5	6938.743	6207.5
6938.744	24830	6938.744	27272.5	6938.744	15530	6938.744	26580	6938.744	6010
6938.745	24437.5	6938.745	26692.5	6938.745	15460	6938.745	26100	6938.745	5887.5
6938.746	23942.5	6938.746	26055	6938.746	15140	6938.746	25557.5	6938.746	5695
6938.747	23512.5	6938.747	25472.5	6938.747	14892.5	6938.747	24990	6938.747	5555
6938.748	23052.5	6938.748	24860	6938.748	14655	6938.748	24432.5	6938.748	5412.5
6938.749	22500	6938.749	24232.5	6938.749	14370	6938.749	23882.5	6938.749	5265
6938.75	21992.5	6938.75	23630	6938.75	14062.5	6938.75	23322.5	6938.75	5100
6938.751	21525	6938.751	23010	6938.751	13685	6938.751	22750	6938.751	4980
6938.752	20880	6938.752	22255	6938.752	13240	6938.752	22105	6938.752	4815
6938.753	20407.5	6938.753	21612.5	6938.753	12910	6938.753	21470	6938.753	4690
6938.754	19875	6938.754	20940	6938.754	12307.5	6938.754	20862.5	6938.754	4552.5
6938.755	19202.5	6938.755	20247.5	6938.755	11652.5	6938.755	20142.5	6938.755	4412.5
6938.756	18537.5	6938.756	19612.5	6938.756	10997.5	6938.756	19440	6938.756	4287.5
6938.757	17960	6938.757	19047.5	6938.757	10365	6938.757	18700	6938.757	4167.5
6938.758	17245	6938.758	18515	6938.758	9660	6938.758	18067.5	6938.758	4045
6938.759	16675	6938.759	17950	6938.759	9180	6938.759	17455	6938.759	3917.5
6938.76	16022.5	6938.76	17457.5	6938.76	8620	6938.76	16752.5	6938.76	3792.5
6938.761	15480	6938.761	16882.5	6938.761	8152.5	6938.761	16187.5	6938.761	3697.5
6938.762	15035	6938.762	16305	6938.762	7675	6938.762	15645	6938.762	3565
6938.763	14487.5	6938.763	15717.5	6938.763	7195	6938.763	15035	6938.763	3470
6938.764	14080	6938.764	15042.5	6938.764	7022.5	6938.764	14480	6938.764	3342.5
6938.765	13687.5	6938.765	14447.5	6938.765	6917.5	6938.765	14040	6938.765	3227.5
6938.766	13365	6938.766	13837.5	6938.766	6955	6938.766	13612.5	6938.766	3135
6938.767	13002.5	6938.767	13320	6938.767	6770	6938.767	13160	6938.767	3032.5
6938.768	12787.5	6938.768	12827.5	6938.768	6805	6938.768	12772.5	6938.768	2927.5
6938.769	12485	6938.769	12272.5	6938.769	6602.5	6938.769	12295	6938.769	2860
6938.77	12192.5	6938.77	11907.5	6938.77	6622.5	6938.77	11935	6938.77	2762.5
6938.771	11922.5	6938.771	11292.5	6938.771	6467.5	6938.771	11517.5	6938.771	2655
6938.772	11525	6938.772	10855	6938.772	6270	6938.772	11020	6938.772	2550
6938.773	11277.5	6938.773	10355	6938.773	6107.5	6938.773	10667.5	6938.773	2502.5
6938.774	10855	6938.774	9855	6938.774	5717.5	6938.774	10180	6938.774	2375
6938.775	10467.5	6938.775	9337.5	6938.775	5355	6938.775	9605	6938.775	2267.5
6938.776	10082.5	6938.776	8940	6938.776	5032.5	6938.776	9142.5	6938.776	2192.5
6938.777	9642.5	6938.777	8392.5	6938.777	4717.5	6938.777	8595	6938.777	2102.5
6938.778	9127.5	6938.778	7867.5	6938.778	4135	6938.778	8067.5	6938.778	2025
6938.779	8777.5	6938.779	7492.5	6938.779	3827.5	6938.779	7530	6938.779	1907.5
6938.78	8352.5	6938.78	7017.5	6938.78	3512.5	6938.78	7070	6938.78	1822.5
6938.781	7907.5	6938.781	6602.5	6938.781	3240	6938.781	6540	6938.781	1690
6938.782	7682.5	6938.782	6220	6938.782	3147.5	6938.782	6210	6938.782	1602.5
6938.783	7300	6938.783	5770	6938.783	2835	6938.783	5725	6938.783	1520
6938.784	7015	6938.784	5357.5	6938.784	2677.5	6938.784	5350	6938.784	1440
6938.785	6847.5	6938.785	5065	6938.785	2720	6938.785	5042.5	6938.785	1327.5
6938.786	6580	6938.786	4682.5	6938.786	2730	6938.786	4715	6938.786	1255
6938.787	6400	6938.787	4342.5	6938.787	2865	6938.787	4432.5	6938.787	1117.5
6938.788	6262.5	6938.788	3985	6938.788	2965	6938.788	4142.5	6938.788	1027.5
6938.789	6047.5	6938.789	3607.5	6938.789	2827.5	6938.789	3850	6938.789	927.5
6938.79	5910	6938.79	3335	6938.79	2855	6938.79	3562.5	6938.79	850
6938.791	5742.5	6938.791	3027.5	6938.791	2870	6938.791	3295	6938.791	747.5
6938.792	5462.5	6938.792	2690	6938.792	2765	6938.792	2917.5	6938.792	637.5
6938.793	5282.5	6938.793	2317.5	6938.793	2517.5	6938.793	2522.5	6938.793	552.5
6938.794	5010	6938.794	1905	6938.794	2465	6938.794	2167.5	6938.794	422.5
6938.795	4687.5	6938.795	1532.5	6938.795	2085	6938.795	1697.5	6938.795	340
6938.796	4392.5	6938.796	1165	6938.796	1740	6938.796	1252.5	6938.796	215
6938.797	3947.5	6938.797	810	6938.797	1515	6938.797	800	6938.797	122.5
6938.798	3575	6938.798	472.5	6938.798	1052.5	6938.798	387.5	6938.798	27.5
6938.799	3252.5	6938.799	142.5	6938.799	705	6938.799	-87.5	6938.799	-67.5
6938.8	2957.5	6938.8	-292.5	6938.8	300	6938.8	-507.5	6938.8	-190
6938.801	2537.5	6938.801	-595	6938.801	70	6938.801	-875	6938.801	-250
6938.802	2347.5	6938.802	-922.5	6938.802	35	6938.802	-1305	6938.802	-352.5
6938.803	2020	6938.803	-1237.5	6938.803	-150	6938.803	-1597.5	6938.803	-445
6938.804	1812.5	6938.804	-1512.5	6938.804	-300	6938.804	-1905	6938.804	-490
6938.805	1687.5	6938.805	-1780	6938.805	-190	6938.805	-2162.5	6938.805	-602.5
6938.806	1540	6938.806	-2012.5	6938.806	-100	6938.806	-2432.5	6938.806	-675
6938.807	1435	6938.807	-2225	6938.807	-7.5	6938.807	-2615	6938.807	-777.5
6938.808	1375	6938.808	-2442.5	6938.808	167.5	6938.808	-2865	6938.808	-865
6938.809	1220	6938.809	-2722.5	6938.809	67.5	6938.809	-3020	6938.809	-932.5
6938.81	1125	6938.81	-2942.5	6938.81	87.5	6938.81	-3265	6938.81	-1017.5
6938.811	1015	6938.811	-3185	6938.811	140	6938.811	-3412.5	6938.811	-1122.5
6938.812	837.5	6938.812	-3372.5	6938.812	37.5	6938.812	-3670	6938.812	-1170
6938.813	702.5	6938.813	-3587.5	6938.813	-25	6938.813	-3845	6938.813	-1220
6938.814	505	6938.814	-3765	6938.814	-32.5	6938.814	-4205	6938.814	-1312.5
6938.815	290	6938.815	-4070	6938.815	-425	6938.815	-4502.5	6938.815	-1377.5
6938.816	-22.5	6938.816	-4315	6938.816	-692.5	6938.816	-4767.5	6938.816	-1477.5
6938.817	-285	6938.817	-4492.5	6938.817	-970	6938.817	-5050	6938.817	-1550
6938.818	-527.5	6938.818	-4692.5	6938.818	-1395	6938.818	-5465	6938.818	-1600
6938.819	-822.5	6938.819	-4907.5	6938.819	-1487.5	6938.819	-5695	6938.819	-1665
6938.82	-1075	6938.82	-5192.5	6938.82	-1760	6938.82	-5990	6938.82	-1752.5
6938.821	-1350	6938.821	-5402.5	6938.821	-2215	6938.821	-6327.5	6938.821	-1782.5
6938.822	-1505	6938.822	-5557.5	6938.822	-2205	6938.822	-6495	6938.822	-1840
6938.823	-1705	6938.823	-5707.5	6938.823	-2340	6938.823	-6700	6938.823	-1885
6938.824	-1817.5	6938.824	-5830	6938.824	-2350	6938.824	-6895	6938.824	-1955
6938.825	-1800	6938.825	-5952.5	6938.825	-2272.5	6938.825	-7007.5	6938.825	-1997.5
6938.826	-1820	6938.826	-6100	6938.826	-2255	6938.826	-7000	6938.826	-2027.5
6938.827	-1852.5	6938.827	-6147.5	6938.827	-2165	6938.827	-7085	6938.827	-2115
6938.828	-1872.5	6938.828	-6257.5	6938.828	-1825	6938.828	-7127.5	6938.828	-2140
6938.829	-1890	6938.829	-6272.5	6938.829	-1857.5	6938.829	-7275	6938.829	-2170
6938.83	-1872.5	6938.83	-6355	6938.83	-1740	6938.83	-7305	6938.83	-2227.5
6938.831	-1940	6938.831	-6460	6938.831	-1570	6938.831	-7402.5	6938.831	-2265
6938.832	-1965	6938.832	-6527.5	6938.832	-1827.5	6938.832	-7477.5	6938.832	-2285
6938.833	-1987.5	6938.833	-6637.5	6938.833	-1682.5	6938.833	-7565	6938.833	-2342.5
6938.834	-2107.5	6938.834	-6765	6938.834	-1827.5	6938.834	-7727.5	6938.834	-2390
6938.835	-2262.5	6938.835	-6885	6938.835	-2002.5	6938.835	-7920	6938.835	-2425
6938.836	-2467.5	6938.836	-6980	6938.836	-2105	6938.836	-8012.5	6938.836	-2447.5
6938.837	-2635	6938.837	-7160	6938.837	-2487.5	6938.837	-8210	6938.837	-2472.5
6938.838	-2867.5	6938.838	-7257.5	6938.838	-2705	6938.838	-8402.5	6938.838	-2505
6938.839	-3030	6938.839	-7302.5	6938.839	-2855	6938.839	-8580	6938.839	-2522.5
6938.84	-3155	6938.84	-7497.5	6938.84	-3175	6938.84	-8745	6938.84	-2557.5
6938.841	-3390	6938.841	-7527.5	6938.841	-3467.5	6938.841	-8962.5	6938.841	-2582.5
6938.842	-3487.5	6938.842	-7517.5	6938.842	-3422.5	6938.842	-8975	6938.842	-2580
6938.843	-3527.5	6938.843	-7552.5	6938.843	-3435	6938.843	-9095	6938.843	-2605
6938.844	-3580	6938.844	-7612.5	6938.844	-3425	6938.844	-9110	6938.844	-2607.5
6938.845	-3517.5	6938.845	-7597.5	6938.845	-3130	6938.845	-9182.5	6938.845	-2630
6938.846	-3525	6938.846	-7612.5	6938.846	-3060	6938.846	-9115	6938.846	-2642.5
6938.847	-3427.5	6938.847	-7592.5	6938.847	-2762.5	6938.847	-9025	6938.847	-2667.5
6938.848	-3365	6938.848	-7587.5	6938.848	-2597.5	6938.848	-8927.5	6938.848	-2712.5
6938.849	-3350	6938.849	-7645	6938.849	-2415	6938.849	-8905	6938.849	-2717.5
6938.85	-3322.5	6938.85	-7597.5	6938.85	-2367.5	6938.85	-8847.5	6938.85	-2730
6938.851	-3142.5	6938.851	-7562.5	6938.851	-2125	6938.851	-8732.5	6938.851	-2705
6938.852	-3205	6938.852	-7600	6938.852	-2177.5	6938.852	-8890	6938.852	-2740
6938.853	-3120	6938.853	-7590	6938.853	-1985	6938.853	-8810	6938.853	-2727.5
6938.854	-3150	6938.854	-7587.5	6938.854	-2050	6938.854	-8852.5	6938.854	-2730
6938.855	-3197.5	6938.855	-7607.5	6938.855	-2262.5	6938.855	-8880	6938.855	-2737.5
6938.856	-3325	6938.856	-7575	6938.856	-2372.5	6938.856	-8982.5	6938.856	-2760
6938.857	-3462.5	6938.857	-7580	6938.857	-2515	6938.857	-9035	6938.857	-2760
6938.858	-3520	6938.858	-7727.5	6938.858	-2872.5	6938.858	-9215	6938.858	-2737.5
6938.859	-3662.5	6938.859	-7645	6938.859	-2890	6938.859	-9225	6938.859	-2747.5
6938.86	-3735	6938.86	-7655	6938.86	-3065	6938.86	-9417.5	6938.86	-2757.5
6938.861	-3817.5	6938.861	-7727.5	6938.861	-3237.5	6938.861	-9447.5	6938.861	-2777.5
6938.862	-3812.5	6938.862	-7730	6938.862	-3247.5	6938.862	-9395	6938.862	-2742.5
6938.863	-3825	6938.863	-7705	6938.863	-3185	6938.863	-9435	6938.863	-2757.5
6938.864	-3817.5	6938.864	-7647.5	6938.864	-3185	6938.864	-9470	6938.864	-2745
6938.865	-3735	6938.865	-7562.5	6938.865	-2887.5	6938.865	-9375	6938.865	-2757.5
6938.866	-3495	6938.866	-7492.5	6938.866	-2572.5	6938.866	-9232.5	6938.866	-2747.5
6938.867	-3420	6938.867	-7507.5	6938.867	-2470	6938.867	-9217.5	6938.867	-2745
6938.868	-3265	6938.868	-7390	6938.868	-2120	6938.868	-8995	6938.868	-2755
6938.869	-3207.5	6938.869	-7340	6938.869	-1960	6938.869	-8955	6938.869	-2737.5
6938.87	-3115	6938.87	-7260	6938.87	-1742.5	6938.87	-8865	6938.87	-2730
6938.871	-2952.5	6938.871	-7160	6938.871	-1495	6938.871	-8642.5	6938.871	-2710
6938.872	-2970	6938.872	-7155	6938.872	-1442.5	6938.872	-8655	6938.872	-2695
6938.873	-2842.5	6938.873	-7137.5	6938.873	-1362.5	6938.873	-8542.5	6938.873	-2690
6938.874	-2827.5	6938.874	-7062.5	6938.874	-1437.5	6938.874	-8605	6938.874	-2677.5
6938.875	-2887.5	6938.875	-7105	6938.875	-1637.5	6938.875	-8600	6938.875	-2690
6938.876	-3025	6938.876	-7110	6938.876	-1730	6938.876	-8687.5	6938.876	-2682.5
6938.877	-3060	6938.877	-7000	6938.877	-1767.5	6938.877	-8727.5	6938.877	-2672.5
6938.878	-3037.5	6938.878	-7040	6938.878	-1957.5	6938.878	-8670	6938.878	-2667.5
6938.879	-3120	6938.879	-7087.5	6938.879	-2182.5	6938.879	-8727.5	6938.879	-2662.5
6938.88	-3145	6938.88	-7010	6938.88	-2150	6938.88	-8770	6938.88	-2657.5
6938.881	-3295	6938.881	-7057.5	6938.881	-2380	6938.881	-8870	6938.881	-2660
6938.882	-3207.5	6938.882	-7017.5	6938.882	-2260	6938.882	-8845	6938.882	-2637.5
6938.883	-3220	6938.883	-6940	6938.883	-2232.5	6938.883	-8777.5	6938.883	-2620
6938.884	-3222.5	6938.884	-6862.5	6938.884	-2265	6938.884	-8777.5	6938.884	-2622.5
6938.885	-3122.5	6938.885	-6852.5	6938.885	-1997.5	6938.885	-8635	6938.885	-2600
6938.886	-2932.5	6938.886	-6692.5	6938.886	-1620	6938.886	-8512.5	6938.886	-2595
6938.887	-2812.5	6938.887	-6627.5	6938.887	-1427.5	6938.887	-8387.5	6938.887	-2580
6938.888	-2675	6938.888	-6537.5	6938.888	-1125	6938.888	-8207.5	6938.888	-2572.5
6938.889	-2547.5	6938.889	-6460	6938.889	-962.5	6938.889	-8177.5	6938.889	-2572.5
6938.89	-2415	6938.89	-6385	6938.89	-740	6938.89	-7995	6938.89	-2540
6938.891	-2262.5	6938.891	-6315	6938.891	-527.5	6938.891	-7832.5	6938.891	-2512.5
6938.892	-2185	6938.892	-6260	6938.892	-447.5	6938.892	-7870	6938.892	-2522.5
6938.893	-1995	6938.893	-6190	6938.893	-317.5	6938.893	-7772.5	6938.893	-2510
6938.894	-2000	6938.894	-6157.5	6938.894	-377.5	6938.894	-7737.5	6938.894	-2470
6938.895	-2067.5	6938.895	-6140	6938.895	-602.5	6938.895	-7782.5	6938.895	-2472.5
6938.896	-2092.5	6938.896	-6085	6938.896	-652.5	6938.896	-7727.5	6938.896	-2452.5
6938.897	-2075	6938.897	-6105	6938.897	-737.5	6938.897	-7800	6938.897	-2437.5
6938.898	-2262.5	6938.898	-6110	6938.898	-1102.5	6938.898	-7840	6938.898	-2440
6938.899	-2360	6938.899	-6072.5	6938.899	-1195	6938.899	-7925	6938.899	-2435
6938.9	-2505	6938.9	-6110	6938.9	-1402.5	6938.9	-8007.5	6938.9	-2432.5
6938.901	-2482.5	6938.901	-6027.5	6938.901	-1380	6938.901	-7977.5	6938.901	-2387.5
6938.902	-2472.5	6938.902	-5992.5	6938.902	-1327.5	6938.902	-7905	6938.902	-2387.5
6938.903	-2507.5	6938.903	-5932.5	6938.903	-1507.5	6938.903	-7910	6938.903	-2402.5
6938.904	-2415	6938.904	-5962.5	6938.904	-1422.5	6938.904	-7865	6938.904	-2392.5
6938.905	-2365	6938.905	-5835	6938.905	-1195	6938.905	-7715	6938.905	-2347.5
6938.906	-2205	6938.906	-5757.5	6938.906	-940	6938.906	-7552.5	6938.906	-2352.5
6938.907	-2090	6938.907	-5732.5	6938.907	-827.5	6938.907	-7507.5	6938.907	-2342.5
6938.908	-1892.5	6938.908	-5665	6938.908	-530	6938.908	-7307.5	6938.908	-2307.5
6938.909	-1870	6938.909	-5627.5	6938.909	-430	6938.909	-7177.5	6938.909	-2292.5
6938.91	-1650	6938.91	-5437.5	6938.91	-157.5	6938.91	-7062.5	6938.91	-2297.5
6938.911	-1580	6938.911	-5397.5	6938.911	-87.5	6938.911	-6945	6938.911	-2287.5
6938.912	-1582.5	6938.912	-5412.5	6938.912	-52.5	6938.912	-6887.5	6938.912	-2247.5
6938.913	-1467.5	6938.913	-5312.5	6938.913	100	6938.913	-6752.5	6938.913	-2242.5
6938.914	-1527.5	6938.914	-5355	6938.914	62.5	6938.914	-6722.5	6938.914	-2237.5
6938.915	-1497.5	6938.915	-5385	6938.915	-207.5	6938.915	-6755	6938.915	-2222.5
6938.916	-1590	6938.916	-5345	6938.916	-375	6938.916	-6785	6938.916	-2207.5
6938.917	-1665	6938.917	-5277.5	6938.917	-630	6938.917	-6807.5	6938.917	-2187.5
6938.918	-1745	6938.918	-5320	6938.918	-867.5	6938.918	-6820	6938.918	-2155
6938.919	-1842.5	6938.919	-5295	6938.919	-887.5	6938.919	-6877.5	6938.919	-2167.5
6938.92	-1865	6938.92	-5335	6938.92	-1117.5	6938.92	-6980	6938.92	-2160
6938.921	-2027.5	6938.921	-5320	6938.921	-1392.5	6938.921	-7005	6938.921	-2140
6938.922	-2055	6938.922	-5262.5	6938.922	-1335	6938.922	-6965	6938.922	-2122.5
6938.923	-2012.5	6938.923	-5262.5	6938.923	-1382.5	6938.923	-6930	6938.923	-2137.5
6938.924	-2030	6938.924	-5205	6938.924	-1282.5	6938.924	-6980	6938.924	-2087.5
6938.925	-1945	6938.925	-5117.5	6938.925	-1220	6938.925	-6822.5	6938.925	-2087.5
6938.926	-1785	6938.926	-5095	6938.926	-895	6938.926	-6672.5	6938.926	-2095
6938.927	-1710	6938.927	-5025	6938.927	-805	6938.927	-6650	6938.927	-2080
6938.928	-1522.5	6938.928	-4912.5	6938.928	-585	6938.928	-6430	6938.928	-2067.5
6938.929	-1477.5	6938.929	-4897.5	6938.929	-385	6938.929	-6330	6938.929	-2037.5
6938.93	-1337.5	6938.93	-4820	6938.93	-90	6938.93	-6225	6938.93	-2012.5
6938.931	-1240	6938.931	-4737.5	6938.931	-60	6938.931	-6052.5	6938.931	-2015
6938.932	-1227.5	6938.932	-4657.5	6938.932	-112.5	6938.932	-6002.5	6938.932	-1977.5
6938.933	-1212.5	6938.933	-4637.5	6938.933	-75	6938.933	-5895	6938.933	-1970
6938.934	-1215	6938.934	-4665	6938.934	-152.5	6938.934	-5950	6938.934	-1975
6938.935	-1225	6938.935	-4607.5	6938.935	-405	6938.935	-5917.5	6938.935	-1957.5
6938.936	-1370	6938.936	-4612.5	6938.936	-550	6938.936	-5990	6938.936	-1950
6938.937	-1427.5	6938.937	-4642.5	6938.937	-757.5	6938.937	-5975	6938.937	-1930
6938.938	-1530	6938.938	-4630	6938.938	-1115	6938.938	-6092.5	6938.938	-1940
6938.939	-1610	6938.939	-4617.5	6938.939	-1172.5	6938.939	-6075	6938.939	-1920
6938.94	-1792.5	6938.94	-4650	6938.94	-1547.5	6938.94	-6182.5	6938.94	-1905
6938.941	-1920	6938.941	-4717.5	6938.941	-1540	6938.941	-6212.5	6938.941	-1922.5
6938.942	-1960	6938.942	-4667.5	6938.942	-1595	6938.942	-6227.5	6938.942	-1905
6938.943	-2000	6938.943	-4565	6938.943	-1687.5	6938.943	-6245	6938.943	-1890
6938.944	-1905	6938.944	-4570	6938.944	-1605	6938.944	-6085	6938.944	-1860
6938.945	-1905	6938.945	-4497.5	6938.945	-1657.5	6938.945	-6045	6938.945	-1847.5
6938.946	-1735	6938.946	-4410	6938.946	-1255	6938.946	-5887.5	6938.946	-1820
6938.947	-1727.5	6938.947	-4312.5	6938.947	-1210	6938.947	-5807.5	6938.947	-1847.5
6938.948	-1615	6938.948	-4265	6938.948	-1037.5	6938.948	-5672.5	6938.948	-1802.5
6938.949	-1442.5	6938.949	-4220	6938.949	-992.5	6938.949	-5532.5	6938.949	-1792.5
6938.95	-1400	6938.95	-4105	6938.95	-692.5	6938.95	-5367.5	6938.95	-1782.5
6938.951	-1237.5	6938.951	-4015	6938.951	-587.5	6938.951	-5250	6938.951	-1775
6938.952	-1265	6938.952	-3980	6938.952	-582.5	6938.952	-5225	6938.952	-1752.5
6938.953	-1185	6938.953	-3970	6938.953	-675	6938.953	-5105	6938.953	-1747.5
6938.954	-1210	6938.954	-3922.5	6938.954	-707.5	6938.954	-5130	6938.954	-1742.5
6938.955	-1287.5	6938.955	-3877.5	6938.955	-995	6938.955	-5157.5	6938.955	-1727.5
6938.956	-1345	6938.956	-3865	6938.956	-1205	6938.956	-5167.5	6938.956	-1707.5
6938.957	-1357.5	6938.957	-3887.5	6938.957	-1400	6938.957	-5210	6938.957	-1710
6938.958	-1615	6938.958	-3940	6938.958	-1577.5	6938.958	-5367.5	6938.958	-1690
6938.959	-1730	6938.959	-3970	6938.959	-1772.5	6938.959	-5360	6938.959	-1692.5
6938.96	-1797.5	6938.96	-3905	6938.96	-2175	6938.96	-5395	6938.96	-1677.5
6938.961	-1907.5	6938.961	-3927.5	6938.961	-2310	6938.961	-5395	6938.961	-1650
6938.962	-1965	6938.962	-3822.5	6938.962	-2292.5	6938.962	-5412.5	6938.962	-1620
6938.963	-1987.5	6938.963	-3832.5	6938.963	-2462.5	6938.963	-5440	6938.963	-1610
6938.964	-2022.5	6938.964	-3780	6938.964	-2425	6938.964	-5450	6938.964	-1600
6938.965	-1912.5	6938.965	-3702.5	6938.965	-2352.5	6938.965	-5310	6938.965	-1577.5
6938.966	-1870	6938.966	-3632.5	6938.966	-1942.5	6938.966	-5172.5	6938.966	-1587.5
6938.967	-1797.5	6938.967	-3570	6938.967	-1960	6938.967	-5065	6938.967	-1572.5
6938.968	-1617.5	6938.968	-3517.5	6938.968	-1877.5	6938.968	-4985	6938.968	-1540
6938.969	-1575	6938.969	-3430	6938.969	-1667.5	6938.969	-4845	6938.969	-1532.5
6938.97	-1432.5	6938.97	-3382.5	6938.97	-1437.5	6938.97	-4680	6938.97	-1542.5
6938.971	-1357.5	6938.971	-3325	6938.971	-1430	6938.971	-4600	6938.971	-1512.5
6938.972	-1305	6938.972	-3275	6938.972	-1490	6938.972	-4537.5	6938.972	-1477.5
6938.973	-1340	6938.973	-3132.5	6938.973	-1407.5	6938.973	-4460	6938.973	-1445
6938.974	-1315	6938.974	-3237.5	6938.974	-1482.5	6938.974	-4550	6938.974	-1442.5
6938.975	-1425	6938.975	-3142.5	6938.975	-1800	6938.975	-4545	6938.975	-1420
6938.976	-1580	6938.976	-3230	6938.976	-2020	6938.976	-4600	6938.976	-1392.5
6938.977	-1627.5	6938.977	-3182.5	6938.977	-2182.5	6938.977	-4677.5	6938.977	-1357.5
6938.978	-1780	6938.978	-3202.5	6938.978	-2620	6938.978	-4767.5	6938.978	-1387.5
6938.979	-1862.5	6938.979	-3207.5	6938.979	-2845	6938.979	-4805	6938.979	-1335
6938.98	-2015	6938.98	-3210	6938.98	-3157.5	6938.98	-4867.5	6938.98	-1322.5
6938.981	-2115	6938.981	-3242.5	6938.981	-3300	6938.981	-4960	6938.981	-1315
6938.982	-2130	6938.982	-3257.5	6938.982	-3392.5	6938.982	-4950	6938.982	-1290
6938.983	-2217.5	6938.983	-3202.5	6938.983	-3410	6938.983	-4952.5	6938.983	-1275
6938.984	-2202.5	6938.984	-3147.5	6938.984	-3377.5	6938.984	-4942.5	6938.984	-1237.5
6938.985	-2242.5	6938.985	-3092.5	6938.985	-3172.5	6938.985	-4812.5	6938.985	-1245
6938.986	-2140	6938.986	-3015	6938.986	-3120	6938.986	-4697.5	6938.986	-1207.5
6938.987	-2040	6938.987	-3012.5	6938.987	-3055	6938.987	-4555	6938.987	-1190
6938.988	-1852.5	6938.988	-2912.5	6938.988	-2762.5	6938.988	-4440	6938.988	-1185
6938.989	-1867.5	6938.989	-2907.5	6938.989	-2750	6938.989	-4310	6938.989	-1167.5
6938.99	-1752.5	6938.99	-2862.5	6938.99	-2590	6938.99	-4205	6938.99	-1155
6938.991	-1610	6938.991	-2807.5	6938.991	-2410	6938.991	-4150	6938.991	-1112.5
6938.992	-1690	6938.992	-2792.5	6938.992	-2485	6938.992	-4147.5	6938.992	-1120
6938.993	-1535	6938.993	-2742.5	6938.993	-2547.5	6938.993	-3990	6938.993	-1082.5
6938.994	-1572.5	6938.994	-2712.5	6938.994	-2507.5	6938.994	-3912.5	6938.994	-1075
6938.995	-1707.5	6938.995	-2745	6938.995	-2827.5	6938.995	-3960	6938.995	-1047.5
6938.996	-1795	6938.996	-2797.5	6938.996	-3030	6938.996	-4060	6938.996	-1055
6938.997	-1857.5	6938.997	-2797.5	6938.997	-3070	6938.997	-4087.5	6938.997	-1017.5
6938.998	-2050	6938.998	-2797.5	6938.998	-3427.5	6938.998	-4167.5	6938.998	-1002.5
6938.999	-2107.5	6938.999	-2802.5	6938.999	-3710	6938.999	-4150	6938.999	-980
6939	-2245	6939	-2807.5	6939	-4030	6939	-4240	6939	-982.5
6939.001	-2335	6939.001	-2885	6939.001	-4145	6939.001	-4322.5	6939.001	-937.5
6939.002	-2302.5	6939.002	-2902.5	6939.002	-4110	6939.002	-4312.5	6939.002	-942.5
6939.003	-2425	6939.003	-2867.5	6939.003	-4280	6939.003	-4272.5	6939.003	-902.5
6939.004	-2372.5	6939.004	-2840	6939.004	-4130	6939.004	-4142.5	6939.004	-900
6939.005	-2365	6939.005	-2850	6939.005	-4015	6939.005	-4100	6939.005	-907.5
6939.006	-2267.5	6939.006	-2762.5	6939.006	-3962.5	6939.006	-3897.5	6939.006	-835
6939.007	-2140	6939.007	-2690	6939.007	-3790	6939.007	-3757.5	6939.007	-847.5
6939.008	-2072.5	6939.008	-2665	6939.008	-3552.5	6939.008	-3697.5	6939.008	-830
6939.009	-2050	6939.009	-2615	6939.009	-3455	6939.009	-3585	6939.009	-812.5
6939.01	-1892.5	6939.01	-2607.5	6939.01	-3287.5	6939.01	-3400	6939.01	-782.5
6939.011	-1785	6939.011	-2552.5	6939.011	-3340	6939.011	-3282.5	6939.011	-760
6939.012	-1780	6939.012	-2542.5	6939.012	-3162.5	6939.012	-3202.5	6939.012	-752.5
6939.013	-1750	6939.013	-2505	6939.013	-3035	6939.013	-3152.5	6939.013	-712.5
6939.014	-1777.5	6939.014	-2487.5	6939.014	-3237.5	6939.014	-3145	6939.014	-690
6939.015	-1840	6939.015	-2482.5	6939.015	-3427.5	6939.015	-3112.5	6939.015	-695
6939.016	-1912.5	6939.016	-2472.5	6939.016	-3572.5	6939.016	-3132.5	6939.016	-652.5
6939.017	-2002.5	6939.017	-2467.5	6939.017	-3750	6939.017	-3117.5	6939.017	-607.5
6939.018	-2187.5	6939.018	-2487.5	6939.018	-4142.5	6939.018	-3232.5	6939.018	-617.5
6939.019	-2310	6939.019	-2462.5	6939.019	-4282.5	6939.019	-3305	6939.019	-600
6939.02	-2412.5	6939.02	-2520	6939.02	-4472.5	6939.02	-3395	6939.02	-545
6939.021	-2480	6939.021	-2510	6939.021	-4682.5	6939.021	-3407.5	6939.021	-525
6939.022	-2470	6939.022	-2525	6939.022	-4637.5	6939.022	-3322.5	6939.022	-527.5
6939.023	-2642.5	6939.023	-2502.5	6939.023	-4750	6939.023	-3330	6939.023	-507.5
6939.024	-2607.5	6939.024	-2572.5	6939.024	-4600	6939.024	-3272.5	6939.024	-495
6939.025	-2610	6939.025	-2535	6939.025	-4335	6939.025	-3145	6939.025	-472.5
6939.026	-2430	6939.026	-2382.5	6939.026	-4257.5	6939.026	-3077.5	6939.026	-442.5
6939.027	-2492.5	6939.027	-2382.5	6939.027	-4195	6939.027	-2932.5	6939.027	-395
6939.028	-2347.5	6939.028	-2332.5	6939.028	-3935	6939.028	-2810	6939.028	-417.5
6939.029	-2220	6939.029	-2350	6939.029	-3772.5	6939.029	-2705	6939.029	-382.5
6939.03	-2112.5	6939.03	-2267.5	6939.03	-3427.5	6939.03	-2607.5	6939.03	-372.5
6939.031	-2047.5	6939.031	-2205	6939.031	-3415	6939.031	-2447.5	6939.031	-362.5
6939.032	-1962.5	6939.032	-2215	6939.032	-3457.5	6939.032	-2350	6939.032	-350
6939.033	-2047.5	6939.033	-2212.5	6939.033	-3215	6939.033	-2282.5	6939.033	-320
6939.034	-2010	6939.034	-2212.5	6939.034	-3317.5	6939.034	-2220	6939.034	-287.5
6939.035	-2102.5	6939.035	-2232.5	6939.035	-3515	6939.035	-2282.5	6939.035	-295
6939.036	-2190	6939.036	-2292.5	6939.036	-3675	6939.036	-2367.5	6939.036	-300
6939.037	-2227.5	6939.037	-2297.5	6939.037	-3715	6939.037	-2427.5	6939.037	-285
6939.038	-2447.5	6939.038	-2307.5	6939.038	-4052.5	6939.038	-2482.5	6939.038	-270
6939.039	-2497.5	6939.039	-2327.5	6939.039	-4220	6939.039	-2490	6939.039	-245
6939.04	-2595	6939.04	-2352.5	6939.04	-4490	6939.04	-2525	6939.04	-222.5
6939.041	-2722.5	6939.041	-2345	6939.041	-4695	6939.041	-2622.5	6939.041	-205
6939.042	-2727.5	6939.042	-2357.5	6939.042	-4505	6939.042	-2510	6939.042	-185
6939.043	-2860	6939.043	-2455	6939.043	-4560	6939.043	-2472.5	6939.043	-175
6939.044	-2807.5	6939.044	-2405	6939.044	-4662.5	6939.044	-2430	6939.044	-165
6939.045	-2722.5	6939.045	-2345	6939.045	-4345	6939.045	-2337.5	6939.045	-135
6939.046	-2670	6939.046	-2377.5	6939.046	-4135	6939.046	-2245	6939.046	-135
6939.047	-2592.5	6939.047	-2282.5	6939.047	-3985	6939.047	-2030	6939.047	-85
6939.048	-2435	6939.048	-2275	6939.048	-3705	6939.048	-1857.5	6939.048	-100
6939.049	-2350	6939.049	-2257.5	6939.049	-3597.5	6939.049	-1747.5	6939.049	-72.5
6939.05	-2275	6939.05	-2177.5	6939.05	-3355	6939.05	-1582.5	6939.05	-45
6939.051	-2202.5	6939.051	-2130	6939.051	-3210	6939.051	-1432.5	6939.051	-25
6939.052	-2150	6939.052	-2197.5	6939.052	-3255	6939.052	-1442.5	6939.052	-5
6939.053	-2125	6939.053	-2135	6939.053	-3157.5	6939.053	-1405	6939.053	42.5
6939.054	-2110	6939.054	-2152.5	6939.054	-3100	6939.054	-1330	6939.054	12.5
6939.055	-2152.5	6939.055	-2087.5	6939.055	-3240	6939.055	-1347.5	6939.055	10
6939.056	-2262.5	6939.056	-2142.5	6939.056	-3387.5	6939.056	-1327.5	6939.056	60
6939.057	-2337.5	6939.057	-2117.5	6939.057	-3620	6939.057	-1300	6939.057	85
6939.058	-2462.5	6939.058	-2195	6939.058	-3890	6939.058	-1422.5	6939.058	67.5
6939.059	-2567.5	6939.059	-2195	6939.059	-4027.5	6939.059	-1437.5	6939.059	90
6939.06	-2632.5	6939.06	-2225	6939.06	-4275	6939.06	-1477.5	6939.06	140
6939.061	-2725	6939.061	-2165	6939.061	-4390	6939.061	-1540	6939.061	160
6939.062	-2752.5	6939.062	-2300	6939.062	-4397.5	6939.062	-1440	6939.062	150
6939.063	-2737.5	6939.063	-2280	6939.063	-4297.5	6939.063	-1452.5	6939.063	167.5
6939.064	-2730	6939.064	-2202.5	6939.064	-4422.5	6939.064	-1367.5	6939.064	195
6939.065	-2647.5	6939.065	-2240	6939.065	-4167.5	6939.065	-1217.5	6939.065	210
6939.066	-2505	6939.066	-2170	6939.066	-3852.5	6939.066	-1192.5	6939.066	230
6939.067	-2445	6939.067	-2165	6939.067	-3757.5	6939.067	-1032.5	6939.067	252.5
6939.068	-2310	6939.068	-2077.5	6939.068	-3525	6939.068	-870	6939.068	290
6939.069	-2220	6939.069	-1967.5	6939.069	-3282.5	6939.069	-725	6939.069	282.5
6939.07	-2155	6939.07	-2002.5	6939.07	-3050	6939.07	-562.5	6939.07	307.5
6939.071	-2047.5	6939.071	-1962.5	6939.071	-2967.5	6939.071	-567.5	6939.071	320
6939.072	-2042.5	6939.072	-1932.5	6939.072	-3047.5	6939.072	-512.5	6939.072	365
6939.073	-1950	6939.073	-1897.5	6939.073	-2827.5	6939.073	-377.5	6939.073	380
6939.074	-1935	6939.074	-1900	6939.074	-2882.5	6939.074	-377.5	6939.074	372.5
6939.075	-1960	6939.075	-1862.5	6939.075	-3065	6939.075	-402.5	6939.075	367.5
6939.076	-2042.5	6939.076	-1977.5	6939.076	-3330	6939.076	-480	6939.076	390
6939.077	-2135	6939.077	-1935	6939.077	-3320	6939.077	-485	6939.077	397.5
6939.078	-2272.5	6939.078	-2070	6939.078	-3612.5	6939.078	-560	6939.078	407.5
6939.079	-2307.5	6939.079	-2042.5	6939.079	-3660	6939.079	-617.5	6939.079	420
6939.08	-2462.5	6939.08	-2037.5	6939.08	-3882.5	6939.08	-662.5	6939.08	402.5
6939.081	-2575	6939.081	-2117.5	6939.081	-3937.5	6939.081	-682.5	6939.081	432.5
6939.082	-2557.5	6939.082	-2082.5	6939.082	-3920	6939.082	-670	6939.082	447.5
6939.083	-2597.5	6939.083	-2105	6939.083	-3977.5	6939.083	-742.5	6939.083	450
6939.084	-2620	6939.084	-2065	6939.084	-4057.5	6939.084	-670	6939.084	425
6939.085	-2497.5	6939.085	-2022.5	6939.085	-3740	6939.085	-542.5	6939.085	457.5
6939.086	-2405	6939.086	-1985	6939.086	-3545	6939.086	-512.5	6939.086	482.5
6939.087	-2300	6939.087	-1955	6939.087	-3395	6939.087	-380	6939.087	510
6939.088	-2135	6939.088	-1845	6939.088	-3035	6939.088	-207.5	6939.088	507.5
6939.089	-2112.5	6939.089	-1910	6939.089	-2947.5	6939.089	-97.5	6939.089	490
6939.09	-1925	6939.09	-1825	6939.09	-2765	6939.09	-22.5	6939.09	537.5
6939.091	-1862.5	6939.091	-1785	6939.091	-2642.5	6939.091	132.5	6939.091	530
6939.092	-1807.5	6939.092	-1772.5	6939.092	-2677.5	6939.092	157.5	6939.092	550
6939.093	-1815	6939.093	-1737.5	6939.093	-2397.5	6939.093	230	6939.093	577.5
6939.094	-1745	6939.094	-1782.5	6939.094	-2380	6939.094	242.5	6939.094	610
6939.095	-1857.5	6939.095	-1760	6939.095	-2640	6939.095	155	6939.095	567.5
6939.096	-1845	6939.096	-1757.5	6939.096	-2730	6939.096	175	6939.096	602.5
6939.097	-1917.5	6939.097	-1792.5	6939.097	-3072.5	6939.097	62.5	6939.097	590
6939.098	-2105	6939.098	-1815	6939.098	-3365	6939.098	25	6939.098	595
6939.099	-2120	6939.099	-1872.5	6939.099	-3305	6939.099	-102.5	6939.099	607.5
6939.1	-2240	6939.1	-1842.5	6939.1	-3520	6939.1	-167.5	6939.1	615
6939.101	-2310	6939.101	-1857.5	6939.101	-3652.5	6939.101	-222.5	6939.101	620
6939.102	-2340	6939.102	-1857.5	6939.102	-3510	6939.102	-155	6939.102	612.5
6939.103	-2350	6939.103	-1837.5	6939.103	-3510	6939.103	-195	6939.103	650
6939.104	-2230	6939.104	-1795	6939.104	-3527.5	6939.104	-170	6939.104	640
6939.105	-2252.5	6939.105	-1772.5	6939.105	-3355	6939.105	-125	6939.105	650
6939.106	-2147.5	6939.106	-1725	6939.106	-3205	6939.106	-47.5	6939.106	677.5
6939.107	-2017.5	6939.107	-1662.5	6939.107	-2985	6939.107	65	6939.107	672.5
6939.108	-1877.5	6939.108	-1617.5	6939.108	-2615	6939.108	272.5	6939.108	707.5
6939.109	-1765	6939.109	-1562.5	6939.109	-2632.5	6939.109	307.5	6939.109	682.5
6939.11	-1692.5	6939.11	-1460	6939.11	-2250	6939.11	412.5	6939.11	695
6939.111	-1537.5	6939.111	-1395	6939.111	-2180	6939.111	490	6939.111	695
6939.112	-1532.5	6939.112	-1557.5	6939.112	-2132.5	6939.112	455	6939.112	695
6939.113	-1485	6939.113	-1430	6939.113	-1970	6939.113	595	6939.113	692.5
6939.114	-1447.5	6939.114	-1460	6939.114	-1905	6939.114	592.5	6939.114	697.5
6939.115	-1532.5	6939.115	-1530	6939.115	-2147.5	6939.115	552.5	6939.115	705
6939.116	-1675	6939.116	-1582.5	6939.116	-2362.5	6939.116	445	6939.116	695
6939.117	-1682.5	6939.117	-1485	6939.117	-2530	6939.117	432.5	6939.117	710
6939.118	-1775	6939.118	-1545	6939.118	-2840	6939.118	342.5	6939.118	705
6939.119	-1845	6939.119	-1562.5	6939.119	-2905	6939.119	212.5	6939.119	717.5
6939.12	-1977.5	6939.12	-1535	6939.12	-3062.5	6939.12	152.5	6939.12	732.5
6939.121	-2152.5	6939.121	-1735	6939.121	-3355	6939.121	-30	6939.121	710
6939.122	-2192.5	6939.122	-1760	6939.122	-3322.5	6939.122	-47.5	6939.122	690
6939.123	-2230	6939.123	-1717.5	6939.123	-3360	6939.123	-10	6939.123	697.5
6939.124	-2112.5	6939.124	-1647.5	6939.124	-3152.5	6939.124	85	6939.124	707.5
6939.125	-2192.5	6939.125	-1742.5	6939.125	-3127.5	6939.125	-22.5	6939.125	685
6939.126	-2137.5	6939.126	-1720	6939.126	-2917.5	6939.126	80	6939.126	657.5
6939.127	-2177.5	6939.127	-1862.5	6939.127	-2755	6939.127	-40	6939.127	645
6939.128	-2435	6939.128	-2257.5	6939.128	-2877.5	6939.128	-290	6939.128	552.5
6939.129	-2565	6939.129	-2377.5	6939.129	-2987.5	6939.129	-415	6939.129	520
6939.13	-2752.5	6939.13	-2647.5	6939.13	-2982.5	6939.13	-642.5	6939.13	435
6939.131	-3470	6939.131	-3482.5	6939.131	-3590	6939.131	-1365	6939.131	222.5
6939.132	-3695	6939.132	-3652.5	6939.132	-3970	6939.132	-1545	6939.132	202.5
6939.133	-3542.5	6939.133	-3580	6939.133	-3915	6939.133	-1420	6939.133	252.5
6939.134	-3367.5	6939.134	-3442.5	6939.134	-3720	6939.134	-1312.5	6939.134	292.5
6939.135	-3577.5	6939.135	-3547.5	6939.135	-4095	6939.135	-1602.5	6939.135	247.5
6939.136	-3402.5	6939.136	-3375	6939.136	-4025	6939.136	-1322.5	6939.136	342.5
6939.137	-3345	6939.137	-3180	6939.137	-4130	6939.137	-1225	6939.137	365
6939.138	-3325	6939.138	-3102.5	6939.138	-4192.5	6939.138	-1262.5	6939.138	397.5
6939.139	-3352.5	6939.139	-2977.5	6939.139	-4170	6939.139	-1250	6939.139	412.5
6939.14	-3750	6939.14	-3327.5	6939.14	-4577.5	6939.14	-1555	6939.14	337.5
6939.141	-3922.5	6939.141	-3400	6939.141	-4860	6939.141	-1720	6939.141	352.5
6939.142	-3407.5	6939.142	-2915	6939.142	-4500	6939.142	-1280	6939.142	457.5
6939.143	-3152.5	6939.143	-2435	6939.143	-4130	6939.143	-907.5	6939.143	542.5
6939.144	-3512.5	6939.144	-3007.5	6939.144	-4255	6939.144	-1355	6939.144	385
6939.145	-3912.5	6939.145	-3370	6939.145	-4642.5	6939.145	-1635	6939.145	320
6939.146	-3422.5	6939.146	-2875	6939.146	-4142.5	6939.146	-1152.5	6939.146	450
6939.147	-2735	6939.147	-2305	6939.147	-3617.5	6939.147	-570	6939.147	582.5
6939.148	-1950	6939.148	-1710	6939.148	-2640	6939.148	95	6939.148	702.5
6939.149	-2047.5	6939.149	-1765	6939.149	-2617.5	6939.149	40	6939.149	647.5
6939.15	-2035	6939.15	-1935	6939.15	-2555	6939.15	-50	6939.15	580
6939.151	-2155	6939.151	-2167.5	6939.151	-2527.5	6939.151	-155	6939.151	557.5
6939.152	-2197.5	6939.152	-2210	6939.152	-2550	6939.152	-200	6939.152	542.5
6939.153	-2172.5	6939.153	-2245	6939.153	-2585	6939.153	-240	6939.153	507.5
6939.154	-2297.5	6939.154	-2320	6939.154	-2687.5	6939.154	-337.5	6939.154	505
6939.155	-2375	6939.155	-2392.5	6939.155	-2870	6939.155	-325	6939.155	505
6939.156	-2510	6939.156	-2435	6939.156	-3077.5	6939.156	-477.5	6939.156	465
6939.157	-2630	6939.157	-2482.5	6939.157	-3200	6939.157	-557.5	6939.157	477.5
6939.158	-2770	6939.158	-2507.5	6939.158	-3445	6939.158	-717.5	6939.158	462.5
6939.159	-2885	6939.159	-2532.5	6939.159	-3487.5	6939.159	-787.5	6939.159	490
6939.16	-3035	6939.16	-2585	6939.16	-3852.5	6939.16	-907.5	6939.16	455
6939.161	-3137.5	6939.161	-2672.5	6939.161	-4117.5	6939.161	-1017.5	6939.161	465
6939.162	-3115	6939.162	-2620	6939.162	-4055	6939.162	-1000	6939.162	472.5
6939.163	-3107.5	6939.163	-2587.5	6939.163	-4075	6939.163	-992.5	6939.163	477.5
6939.164	-3205	6939.164	-2572.5	6939.164	-3975	6939.164	-982.5	6939.164	487.5
6939.165	-3005	6939.165	-2550	6939.165	-3905	6939.165	-925	6939.165	487.5
6939.166	-2855	6939.166	-2487.5	6939.166	-3647.5	6939.166	-817.5	6939.166	500
6939.167	-2845	6939.167	-2332.5	6939.167	-3475	6939.167	-705	6939.167	517.5
6939.168	-2655	6939.168	-2275	6939.168	-3110	6939.168	-517.5	6939.168	475
6939.169	-2575	6939.169	-2147.5	6939.169	-2970	6939.169	-440	6939.169	512.5
6939.17	-2367.5	6939.17	-2095	6939.17	-2740	6939.17	-360	6939.17	507.5
6939.171	-2250	6939.171	-2055	6939.171	-2355	6939.171	-210	6939.171	512.5
6939.172	-2172.5	6939.172	-1950	6939.172	-2555	6939.172	-212.5	6939.172	537.5
6939.173	-2052.5	6939.173	-1955	6939.173	-2385	6939.173	-5	6939.173	562.5
6939.174	-2035	6939.174	-1920	6939.174	-2465	6939.174	27.5	6939.174	535
6939.175	-2027.5	6939.175	-1902.5	6939.175	-2517.5	6939.175	-12.5	6939.175	550
6939.176	-2150	6939.176	-1925	6939.176	-2647.5	6939.176	-110	6939.176	542.5
6939.177	-2165	6939.177	-1925	6939.177	-2700	6939.177	-175	6939.177	537.5
6939.178	-2350	6939.178	-2090	6939.178	-3095	6939.178	-337.5	6939.178	545
6939.179	-2412.5	6939.179	-2042.5	6939.179	-3242.5	6939.179	-287.5	6939.179	562.5
6939.18	-2612.5	6939.18	-2045	6939.18	-3477.5	6939.18	-402.5	6939.18	547.5
6939.181	-2700	6939.181	-1987.5	6939.181	-3667.5	6939.181	-540	6939.181	547.5
6939.182	-2575	6939.182	-1957.5	6939.182	-3542.5	6939.182	-425	6939.182	545
6939.183	-2647.5	6939.183	-1950	6939.183	-3515	6939.183	-477.5	6939.183	595
6939.184	-2650	6939.184	-1837.5	6939.184	-3420	6939.184	-355	6939.184	587.5
6939.185	-2565	6939.185	-1777.5	6939.185	-3235	6939.185	-317.5	6939.185	592.5
6939.186	-2365	6939.186	-1665	6939.186	-2940	6939.186	-220	6939.186	602.5
6939.187	-2172.5	6939.187	-1605	6939.187	-2755	6939.187	-102.5	6939.187	607.5
6939.188	-1935	6939.188	-1462.5	6939.188	-2440	6939.188	97.5	6939.188	597.5
6939.189	-1817.5	6939.189	-1355	6939.189	-2295	6939.189	155	6939.189	597.5
6939.19	-1720	6939.19	-1340	6939.19	-1975	6939.19	277.5	6939.19	607.5
6939.191	-1540	6939.191	-1257.5	6939.191	-1770	6939.191	450	6939.191	612.5
6939.192	-1570	6939.192	-1182.5	6939.192	-1715	6939.192	547.5	6939.192	632.5
6939.193	-1372.5	6939.193	-1055	6939.193	-1545	6939.193	657.5	6939.193	627.5
6939.194	-1312.5	6939.194	-1090	6939.194	-1590	6939.194	722.5	6939.194	647.5
6939.195	-1287.5	6939.195	-1012.5	6939.195	-1680	6939.195	657.5	6939.195	655
6939.196	-1315	6939.196	-1042.5	6939.196	-1902.5	6939.196	592.5	6939.196	655
6939.197	-1327.5	6939.197	-1002.5	6939.197	-1925	6939.197	590	6939.197	655
6939.198	-1422.5	6939.198	-1022.5	6939.198	-2307.5	6939.198	535	6939.198	645
6939.199	-1525	6939.199	-1060	6939.199	-2217.5	6939.199	430	6939.199	645
6939.2	-1695	6939.2	-1092.5	6939.2	-2395	6939.2	320	6939.2	637.5
6939.201	-2010	6939.201	-1292.5	6939.201	-2705	6939.201	80	6939.201	617.5
6939.202	-2297.5	6939.202	-1615	6939.202	-2875	6939.202	-45	6939.202	507.5
6939.203	-1202.5	6939.203	-337.5	6939.203	-1977.5	6939.203	1220	6939.203	862.5
6939.204	592.5	6939.204	1295	6939.204	-315	6939.204	2922.5	6939.204	1220
6939.205	3402.5	6939.205	3935	6939.205	2655	6939.205	5515	6939.205	1687.5
6939.206	6197.5	6939.206	5867.5	6939.206	5607.5	6939.206	7177.5	6939.206	1925
6939.207	11572.5	6939.207	10692.5	6939.207	10365	6939.207	11850	6939.207	2937.5
6939.208	17775	6939.208	16762.5	6939.208	16292.5	6939.208	18082.5	6939.208	4435
6939.209	27095	6939.209	27297.5	6939.209	23500	6939.209	28697.5	6939.209	7587.5
6939.21	39140	6939.21	41950	6939.21	33247.5	6939.21	43675	6939.21	11905
6939.211	49000	6939.211	55112.5	6939.211	40487.5	6939.211	56602.5	6939.211	15617.5
6939.212	56997.5	6939.212	66402.5	6939.212	45972.5	6939.212	67490	6939.212	18352.5
6939.213	65375	6939.213	77847.5	6939.213	51815	6939.213	78455	6939.213	20447.5
6939.214	72512.5	6939.214	81917.5	6939.214	52192.5	6939.214	81917.5	6939.214	21150
6939.215	69762.5	6939.215	81917.5	6939.215	26695	6939.215	81917.5	6939.215	23300
6939.216	58215	6939.216	78945	6939.216	9840	6939.216	69067.5	6939.216	10482.5
6939.217	12605	6939.217	38487.5	6939.217	8177.5	6939.217	11807.5	6939.217	-1275
6939.218	9307.5	6939.218	-1510	6939.218	8810	6939.218	12875	6939.218	1477.5
6939.219	8967.5	6939.219	5477.5	6939.219	8645	6939.219	15327.5	6939.219	2697.5
6939.22	8877.5	6939.22	8202.5	6939.22	8572.5	6939.22	16072.5	6939.22	3295
6939.221	9467.5	6939.221	9877.5	6939.221	9187.5	6939.221	16902.5	6939.221	3805
6939.222	9000	6939.222	9720	6939.222	9455	6939.222	16382.5	6939.222	3810
6939.223	9067.5	6939.223	10415	6939.223	9310	6939.223	16500	6939.223	4100
6939.224	10167.5	6939.224	11847.5	6939.224	10142.5	6939.224	17532.5	6939.224	4547.5
6939.225	11182.5	6939.225	13227.5	6939.225	10967.5	6939.225	18337.5	6939.225	4872.5
6939.226	11915	6939.226	13957.5	6939.226	11537.5	6939.226	18792.5	6939.226	5062.5
6939.227	12652.5	6939.227	14862.5	6939.227	12282.5	6939.227	19507.5	6939.227	5357.5
6939.228	14080	6939.228	16502.5	6939.228	13180	6939.228	20875	6939.228	5825
6939.229	16107.5	6939.229	18682.5	6939.229	14425	6939.229	22645	6939.229	6437.5
6939.23	18100	6939.23	20937.5	6939.23	15727.5	6939.23	24587.5	6939.23	6955
6939.231	20200	6939.231	23162.5	6939.231	16920	6939.231	26462.5	6939.231	7445
6939.232	21977.5	6939.232	25055	6939.232	17652.5	6939.232	28102.5	6939.232	7815
6939.233	23610	6939.233	26612.5	6939.233	18560	6939.233	29390	6939.233	8025
6939.234	24995	6939.234	27957.5	6939.234	19055	6939.234	30360	6939.234	8222.5
6939.235	25860	6939.235	28757.5	6939.235	19392.5	6939.235	30855	6939.235	8280
6939.236	26495	6939.236	29160	6939.236	19350	6939.236	31117.5	6939.236	8252.5
6939.237	26755	6939.237	29367.5	6939.237	19550	6939.237	31032.5	6939.237	8195
6939.238	26720	6939.238	29265	6939.238	19415	6939.238	30802.5	6939.238	8132.5
6939.239	26595	6939.239	29100	6939.239	19192.5	6939.239	30440	6939.239	7982.5
6939.24	26262.5	6939.24	28832.5	6939.24	18855	6939.24	30010	6939.24	7870
6939.241	25862.5	6939.241	28417.5	6939.241	18472.5	6939.241	29442.5	6939.241	7745
6939.242	25482.5	6939.242	27987.5	6939.242	18377.5	6939.242	28892.5	6939.242	7582.5
6939.243	25010	6939.243	27417.5	6939.243	17955	6939.243	28250	6939.243	7437.5
6939.244	24545	6939.244	26937.5	6939.244	17727.5	6939.244	27710	6939.244	7267.5
6939.245	23992.5	6939.245	26322.5	6939.245	17407.5	6939.245	27197.5	6939.245	7087.5
6939.246	23520	6939.246	25675	6939.246	17207.5	6939.246	26590	6939.246	6912.5
6939.247	23022.5	6939.247	25082.5	6939.247	16867.5	6939.247	26025	6939.247	6752.5
6939.248	22550	6939.248	24487.5	6939.248	16685	6939.248	25447.5	6939.248	6592.5
6939.249	21982.5	6939.249	23780	6939.249	16255	6939.249	24835	6939.249	6425
6939.25	21562.5	6939.25	23212.5	6939.25	16062.5	6939.25	24210	6939.25	6270
6939.251	20945	6939.251	22592.5	6939.251	15817.5	6939.251	23640	6939.251	6135
6939.252	20347.5	6939.252	21872.5	6939.252	15220	6939.252	22885	6939.252	5975
6939.253	19902.5	6939.253	21212.5	6939.253	14982.5	6939.253	22247.5	6939.253	5807.5
6939.254	19237.5	6939.254	20497.5	6939.254	14377.5	6939.254	21505	6939.254	5657.5
6939.255	18582.5	6939.255	19805	6939.255	13807.5	6939.255	20670	6939.255	5510
6939.256	17825	6939.256	19142.5	6939.256	13065	6939.256	19892.5	6939.256	5342.5
6939.257	17145	6939.257	18452.5	6939.257	12340	6939.257	19072.5	6939.257	5202.5
6939.258	16430	6939.258	17785	6939.258	11667.5	6939.258	18202.5	6939.258	5057.5
6939.259	15745	6939.259	17060	6939.259	11110	6939.259	17410	6939.259	4942.5
6939.26	14997.5	6939.26	16380	6939.26	10667.5	6939.26	16692.5	6939.26	4782.5
6939.261	14342.5	6939.261	15762.5	6939.261	9960	6939.261	15905	6939.261	4670
6939.262	13752.5	6939.262	15262.5	6939.262	9572.5	6939.262	15210	6939.262	4525
6939.263	13237.5	6939.263	14670	6939.263	9092.5	6939.263	14497.5	6939.263	4402.5
6939.264	12640	6939.264	14157.5	6939.264	8957.5	6939.264	13940	6939.264	4280
6939.265	12182.5	6939.265	13602.5	6939.265	8590	6939.265	13447.5	6939.265	4162.5
6939.266	11710	6939.266	13135	6939.266	8582.5	6939.266	12892.5	6939.266	4030
6939.267	11235	6939.267	12700	6939.267	8467.5	6939.267	12360	6939.267	3910
6939.268	10902.5	6939.268	12280	6939.268	8440	6939.268	11987.5	6939.268	3802.5
6939.269	10512.5	6939.269	11737.5	6939.269	8140	6939.269	11477.5	6939.269	3695
6939.27	10152.5	6939.27	11320	6939.27	8220	6939.27	11065	6939.27	3560
6939.271	9777.5	6939.271	10975	6939.271	8147.5	6939.271	10635	6939.271	3452.5
6939.272	9402.5	6939.272	10477.5	6939.272	7807.5	6939.272	10217.5	6939.272	3330
6939.273	9017.5	6939.273	10060	6939.273	7820	6939.273	9810	6939.273	3227.5
6939.274	8557.5	6939.274	9665	6939.274	7620	6939.274	9367.5	6939.274	3127.5
6939.275	8157.5	6939.275	9225	6939.275	7272.5	6939.275	8857.5	6939.275	2975
6939.276	7667.5	6939.276	8875	6939.276	7005	6939.276	8385	6939.276	2887.5
6939.277	7230	6939.277	8452.5	6939.277	6635	6939.277	7852.5	6939.277	2770
6939.278	6680	6939.278	8047.5	6939.278	6297.5	6939.278	7345	6939.278	2667.5
6939.279	6202.5	6939.279	7565	6939.279	5957.5	6939.279	6912.5	6939.279	2557.5
6939.28	5685	6939.28	7155	6939.28	5397.5	6939.28	6380	6939.28	2447.5
6939.281	5252.5	6939.281	6830	6939.281	5147.5	6939.281	5935	6939.281	2342.5
6939.282	4847.5	6939.282	6447.5	6939.282	5090	6939.282	5437.5	6939.282	2217.5
6939.283	4435	6939.283	6075	6939.283	4875	6939.283	5055	6939.283	2107.5
6939.284	4097.5	6939.284	5787.5	6939.284	4760	6939.284	4622.5	6939.284	2005
6939.285	3780	6939.285	5392.5	6939.285	4832.5	6939.285	4345	6939.285	1902.5
6939.286	3540	6939.286	5102.5	6939.286	4880	6939.286	4027.5	6939.286	1782.5
6939.287	3275	6939.287	4792.5	6939.287	4980	6939.287	3742.5	6939.287	1702.5
6939.288	2970	6939.288	4457.5	6939.288	5132.5	6939.288	3492.5	6939.288	1570
6939.289	2690	6939.289	4102.5	6939.289	5115	6939.289	3150	6939.289	1465
6939.29	2475	6939.29	3795	6939.29	4982.5	6939.29	2822.5	6939.29	1372.5
6939.291	2235	6939.291	3497.5	6939.291	5142.5	6939.291	2562.5	6939.291	1252.5
6939.292	1880	6939.292	3100	6939.292	5140	6939.292	2245	6939.292	1112.5
6939.293	1627.5	6939.293	2790	6939.293	5067.5	6939.293	1920	6939.293	1027.5
6939.294	1315	6939.294	2517.5	6939.294	4852.5	6939.294	1602.5	6939.294	912.5
6939.295	927.5	6939.295	2130	6939.295	4650	6939.295	1190	6939.295	800
6939.296	520	6939.296	1750	6939.296	4295	6939.296	680	6939.296	680
6939.297	127.5	6939.297	1397.5	6939.297	4047.5	6939.297	280	6939.297	562.5
6939.298	-327.5	6939.298	997.5	6939.298	3587.5	6939.298	-277.5	6939.298	445
6939.299	-740	6939.299	562.5	6939.299	3270	6939.299	-672.5	6939.299	317.5
6939.3	-1165	6939.3	252.5	6939.3	2830	6939.3	-1057.5	6939.3	260
6939.301	-1652.5	6939.301	-80	6939.301	2505	6939.301	-1535	6939.301	117.5
6939.302	-1997.5	6939.302	-455	6939.302	2340	6939.302	-1875	6939.302	22.5
6939.303	-2275	6939.303	-787.5	6939.303	2110	6939.303	-2257.5	6939.303	-65
6939.304	-2510	6939.304	-1052.5	6939.304	2112.5	6939.304	-2545	6939.304	-162.5
6939.305	-2762.5	6939.305	-1362.5	6939.305	2027.5	6939.305	-2770	6939.305	-260
6939.306	-2930	6939.306	-1560	6939.306	2065	6939.306	-3030	6939.306	-312.5
6939.307	-3102.5	6939.307	-1817.5	6939.307	2052.5	6939.307	-3295	6939.307	-437.5
6939.308	-3185	6939.308	-2060	6939.308	2290	6939.308	-3390	6939.308	-522.5
6939.309	-3415	6939.309	-2310	6939.309	2165	6939.309	-3617.5	6939.309	-607.5
6939.31	-3567.5	6939.31	-2485	6939.31	2255	6939.31	-3827.5	6939.31	-702.5
6939.311	-3712.5	6939.311	-2735	6939.311	2217.5	6939.311	-4027.5	6939.311	-752.5
6939.312	-3865	6939.312	-2940	6939.312	2247.5	6939.312	-4215	6939.312	-860
6939.313	-4072.5	6939.313	-3212.5	6939.313	2250	6939.313	-4447.5	6939.313	-925
6939.314	-4345	6939.314	-3412.5	6939.314	2027.5	6939.314	-4640	6939.314	-987.5
6939.315	-4555	6939.315	-3657.5	6939.315	1725	6939.315	-4942.5	6939.315	-1045
6939.316	-4862.5	6939.316	-4012.5	6939.316	1422.5	6939.316	-5247.5	6939.316	-1125
6939.317	-5160	6939.317	-4177.5	6939.317	1110	6939.317	-5555	6939.317	-1205
6939.318	-5517.5	6939.318	-4507.5	6939.318	657.5	6939.318	-5840	6939.318	-1290
6939.319	-5775	6939.319	-4732.5	6939.319	462.5	6939.319	-6145	6939.319	-1320
6939.32	-6107.5	6939.32	-4940	6939.32	150	6939.32	-6412.5	6939.32	-1390
6939.321	-6385	6939.321	-5157.5	6939.321	-77.5	6939.321	-6747.5	6939.321	-1460
6939.322	-6610	6939.322	-5332.5	6939.322	-250	6939.322	-6980	6939.322	-1517.5
6939.323	-6880	6939.323	-5522.5	6939.323	-297.5	6939.323	-7127.5	6939.323	-1560
6939.324	-6935	6939.324	-5680	6939.324	-322.5	6939.324	-7287.5	6939.324	-1652.5
6939.325	-7047.5	6939.325	-5760	6939.325	-420	6939.325	-7382.5	6939.325	-1702.5
6939.326	-7145	6939.326	-5927.5	6939.326	-420	6939.326	-7465	6939.326	-1730
6939.327	-7210	6939.327	-6040	6939.327	-212.5	6939.327	-7550	6939.327	-1775
6939.328	-7150	6939.328	-6080	6939.328	122.5	6939.328	-7572.5	6939.328	-1822.5
6939.329	-7212.5	6939.329	-6307.5	6939.329	-57.5	6939.329	-7675	6939.329	-1877.5
6939.33	-7272.5	6939.33	-6320	6939.33	195	6939.33	-7702.5	6939.33	-1925
6939.331	-7305	6939.331	-6447.5	6939.331	210	6939.331	-7732.5	6939.331	-1947.5
6939.332	-7322.5	6939.332	-6545	6939.332	302.5	6939.332	-7845	6939.332	-1985
6939.333	-7427.5	6939.333	-6625	6939.333	210	6939.333	-7920	6939.333	-2027.5
6939.334	-7522.5	6939.334	-6777.5	6939.334	137.5	6939.334	-7982.5	6939.334	-2057.5
6939.335	-7627.5	6939.335	-6840	6939.335	-25	6939.335	-8090	6939.335	-2075
6939.336	-7855	6939.336	-7012.5	6939.336	-292.5	6939.336	-8340	6939.336	-2105
6939.337	-7982.5	6939.337	-7137.5	6939.337	-452.5	6939.337	-8470	6939.337	-2132.5
6939.338	-8225	6939.338	-7265	6939.338	-710	6939.338	-8685	6939.338	-2177.5
6939.339	-8455	6939.339	-7352.5	6939.339	-975	6939.339	-8812.5	6939.339	-2180
6939.34	-8622.5	6939.34	-7502.5	6939.34	-1265	6939.34	-8990	6939.34	-2222.5
6939.341	-8767.5	6939.341	-7572.5	6939.341	-1480	6939.341	-9137.5	6939.341	-2260
6939.342	-8837.5	6939.342	-7695	6939.342	-1445	6939.342	-9162.5	6939.342	-2262.5
6939.343	-8995	6939.343	-7765	6939.343	-1447.5	6939.343	-9257.5	6939.343	-2305
6939.344	-8985	6939.344	-7690	6939.344	-1525	6939.344	-9230	6939.344	-2315
6939.345	-8967.5	6939.345	-7755	6939.345	-1437.5	6939.345	-9330	6939.345	-2342.5
6939.346	-8947.5	6939.346	-7760	6939.346	-1245	6939.346	-9297.5	6939.346	-2340
6939.347	-8800	6939.347	-7797.5	6939.347	-1130	6939.347	-9255	6939.347	-2345
6939.348	-8805	6939.348	-7787.5	6939.348	-732.5	6939.348	-9072.5	6939.348	-2402.5
6939.349	-8727.5	6939.349	-7790	6939.349	-742.5	6939.349	-9105	6939.349	-2410
6939.35	-8655	6939.35	-7780	6939.35	-520	6939.35	-8962.5	6939.35	-2395
6939.351	-8667.5	6939.351	-7742.5	6939.351	-380	6939.351	-8880	6939.351	-2402.5
6939.352	-8630	6939.352	-7852.5	6939.352	-372.5	6939.352	-8917.5	6939.352	-2390
6939.353	-8600	6939.353	-7812.5	6939.353	-162.5	6939.353	-8905	6939.353	-2420
6939.354	-8602.5	6939.354	-7822.5	6939.354	-347.5	6939.354	-8922.5	6939.354	-2405
6939.355	-8585	6939.355	-7822.5	6939.355	-382.5	6939.355	-8930	6939.355	-2432.5
6939.356	-8695	6939.356	-7927.5	6939.356	-545	6939.356	-9015	6939.356	-2462.5
6939.357	-8765	6939.357	-7937.5	6939.357	-787.5	6939.357	-9082.5	6939.357	-2430
6939.358	-8950	6939.358	-7945	6939.358	-1007.5	6939.358	-9185	6939.358	-2440
6939.359	-9027.5	6939.359	-7965	6939.359	-1187.5	6939.359	-9250	6939.359	-2457.5
6939.36	-9117.5	6939.36	-8022.5	6939.36	-1337.5	6939.36	-9337.5	6939.36	-2425
6939.361	-9187.5	6939.361	-7990	6939.361	-1470	6939.361	-9430	6939.361	-2432.5
6939.362	-9260	6939.362	-8062.5	6939.362	-1570	6939.362	-9427.5	6939.362	-2460
6939.363	-9290	6939.363	-8055	6939.363	-1530	6939.363	-9422.5	6939.363	-2457.5
6939.364	-9305	6939.364	-7987.5	6939.364	-1495	6939.364	-9372.5	6939.364	-2445
6939.365	-9180	6939.365	-7932.5	6939.365	-1237.5	6939.365	-9325	6939.365	-2445
6939.366	-9092.5	6939.366	-7975	6939.366	-1120	6939.366	-9185	6939.366	-2442.5
6939.367	-8972.5	6939.367	-7937.5	6939.367	-820	6939.367	-9102.5	6939.367	-2452.5
6939.368	-8805	6939.368	-7832.5	6939.368	-485	6939.368	-8930	6939.368	-2427.5
6939.369	-8732.5	6939.369	-7707.5	6939.369	-367.5	6939.369	-8872.5	6939.369	-2432.5
6939.37	-8582.5	6939.37	-7720	6939.37	-255	6939.37	-8770	6939.37	-2395
6939.371	-8472.5	6939.371	-7620	6939.371	-12.5	6939.371	-8570	6939.371	-2400
6939.372	-8375	6939.372	-7572.5	6939.372	180	6939.372	-8535	6939.372	-2397.5
6939.373	-8337.5	6939.373	-7612.5	6939.373	105	6939.373	-8447.5	6939.373	-2372.5
6939.374	-8272.5	6939.374	-7622.5	6939.374	130	6939.374	-8447.5	6939.374	-2372.5
6939.375	-8277.5	6939.375	-7560	6939.375	40	6939.375	-8467.5	6939.375	-2352.5
6939.376	-8360	6939.376	-7532.5	6939.376	-45	6939.376	-8485	6939.376	-2352.5
6939.377	-8462.5	6939.377	-7602.5	6939.377	-202.5	6939.377	-8547.5	6939.377	-2345
6939.378	-8482.5	6939.378	-7510	6939.378	-585	6939.378	-8572.5	6939.378	-2337.5
6939.379	-8557.5	6939.379	-7510	6939.379	-675	6939.379	-8652.5	6939.379	-2327.5
6939.38	-8582.5	6939.38	-7530	6939.38	-812.5	6939.38	-8697.5	6939.38	-2342.5
6939.381	-8687.5	6939.381	-7592.5	6939.381	-1062.5	6939.381	-8705	6939.381	-2292.5
6939.382	-8712.5	6939.382	-7610	6939.382	-1042.5	6939.382	-8722.5	6939.382	-2315
6939.383	-8735	6939.383	-7550	6939.383	-1110	6939.383	-8685	6939.383	-2330
6939.384	-8642.5	6939.384	-7557.5	6939.384	-1040	6939.384	-8630	6939.384	-2310
6939.385	-8560	6939.385	-7457.5	6939.385	-782.5	6939.385	-8590	6939.385	-2280
6939.386	-8510	6939.386	-7377.5	6939.386	-582.5	6939.386	-8480	6939.386	-2267.5
6939.387	-8417.5	6939.387	-7270	6939.387	-247.5	6939.387	-8307.5	6939.387	-2262.5
6939.388	-8212.5	6939.388	-7212.5	6939.388	-22.5	6939.388	-8172.5	6939.388	-2265
6939.389	-8092.5	6939.389	-7220	6939.389	92.5	6939.389	-8022.5	6939.389	-2232.5
6939.39	-7962.5	6939.39	-7065	6939.39	225	6939.39	-7887.5	6939.39	-2215
6939.391	-7852.5	6939.391	-7115	6939.391	415	6939.391	-7720	6939.391	-2250
6939.392	-7755	6939.392	-7020	6939.392	472.5	6939.392	-7600	6939.392	-2215
6939.393	-7642.5	6939.393	-6915	6939.393	685	6939.393	-7577.5	6939.393	-2207.5
6939.394	-7547.5	6939.394	-6892.5	6939.394	660	6939.394	-7492.5	6939.394	-2205
6939.395	-7567.5	6939.395	-6897.5	6939.395	670	6939.395	-7542.5	6939.395	-2167.5
6939.396	-7672.5	6939.396	-6880	6939.396	365	6939.396	-7555	6939.396	-2172.5
6939.397	-7682.5	6939.397	-6855	6939.397	162.5	6939.397	-7547.5	6939.397	-2162.5
6939.398	-7802.5	6939.398	-6877.5	6939.398	-2.5	6939.398	-7630	6939.398	-2155
6939.399	-7827.5	6939.399	-7005	6939.399	-105	6939.399	-7650	6939.399	-2162.5
6939.4	-7940	6939.4	-6890	6939.4	-390	6939.4	-7680	6939.4	-2137.5
6939.401	-7992.5	6939.401	-6907.5	6939.401	-680	6939.401	-7692.5	6939.401	-2105
6939.402	-7997.5	6939.402	-6872.5	6939.402	-550	6939.402	-7657.5	6939.402	-2107.5
6939.403	-7967.5	6939.403	-6882.5	6939.403	-607.5	6939.403	-7650	6939.403	-2095
6939.404	-7912.5	6939.404	-6845	6939.404	-572.5	6939.404	-7605	6939.404	-2077.5
6939.405	-7875	6939.405	-6825	6939.405	-310	6939.405	-7500	6939.405	-2065
6939.406	-7752.5	6939.406	-6712.5	6939.406	-227.5	6939.406	-7410	6939.406	-2065
6939.407	-7647.5	6939.407	-6697.5	6939.407	-72.5	6939.407	-7280	6939.407	-2065
6939.408	-7407.5	6939.408	-6655	6939.408	172.5	6939.408	-7172.5	6939.408	-2070
6939.409	-7315	6939.409	-6612.5	6939.409	387.5	6939.409	-6960	6939.409	-2050
6939.41	-7137.5	6939.41	-6480	6939.41	647.5	6939.41	-6855	6939.41	-2047.5
6939.411	-7000	6939.411	-6417.5	6939.411	852.5	6939.411	-6782.5	6939.411	-2052.5
6939.412	-6972.5	6939.412	-6370	6939.412	830	6939.412	-6680	6939.412	-2025
6939.413	-6850	6939.413	-6345	6939.413	685	6939.413	-6562.5	6939.413	-2035
6939.414	-6830	6939.414	-6282.5	6939.414	592.5	6939.414	-6557.5	6939.414	-2030
6939.415	-6835	6939.415	-6360	6939.415	472.5	6939.415	-6585	6939.415	-2032.5
6939.416	-6900	6939.416	-6327.5	6939.416	362.5	6939.416	-6565	6939.416	-1995
6939.417	-6992.5	6939.417	-6315	6939.417	117.5	6939.417	-6570	6939.417	-1975
6939.418	-7095	6939.418	-6392.5	6939.418	-170	6939.418	-6635	6939.418	-1990
6939.419	-7155	6939.419	-6400	6939.419	-307.5	6939.419	-6712.5	6939.419	-1990
6939.42	-7245	6939.42	-6385	6939.42	-417.5	6939.42	-6737.5	6939.42	-1947.5
6939.421	-7377.5	6939.421	-6415	6939.421	-545	6939.421	-6772.5	6939.421	-1930
6939.422	-7392.5	6939.422	-6402.5	6939.422	-712.5	6939.422	-6790	6939.422	-1955
6939.423	-7390	6939.423	-6395	6939.423	-845	6939.423	-6732.5	6939.423	-1920
6939.424	-7357.5	6939.424	-6390	6939.424	-735	6939.424	-6690	6939.424	-1927.5
6939.425	-7300	6939.425	-6322.5	6939.425	-645	6939.425	-6685	6939.425	-1930
6939.426	-7202.5	6939.426	-6317.5	6939.426	-432.5	6939.426	-6482.5	6939.426	-1922.5
6939.427	-7002.5	6939.427	-6267.5	6939.427	-230	6939.427	-6375	6939.427	-1897.5
6939.428	-6925	6939.428	-6170	6939.428	25	6939.428	-6222.5	6939.428	-1890
6939.429	-6782.5	6939.429	-6202.5	6939.429	110	6939.429	-6125	6939.429	-1865
6939.43	-6710	6939.43	-6150	6939.43	65	6939.43	-6042.5	6939.43	-1865
6939.431	-6555	6939.431	-6087.5	6939.431	265	6939.431	-5912.5	6939.431	-1847.5
6939.432	-6432.5	6939.432	-6057.5	6939.432	442.5	6939.432	-5845	6939.432	-1837.5
6939.433	-6350	6939.433	-6012.5	6939.433	332.5	6939.433	-5792.5	6939.433	-1832.5
6939.434	-6400	6939.434	-5977.5	6939.434	397.5	6939.434	-5650	6939.434	-1807.5
6939.435	-6385	6939.435	-5980	6939.435	335	6939.435	-5692.5	6939.435	-1795
6939.436	-6437.5	6939.436	-6087.5	6939.436	7.5	6939.436	-5765	6939.436	-1802.5
6939.437	-6505	6939.437	-6092.5	6939.437	-270	6939.437	-5832.5	6939.437	-1787.5
6939.438	-6567.5	6939.438	-6110	6939.438	-455	6939.438	-5907.5	6939.438	-1752.5
6939.439	-6727.5	6939.439	-6172.5	6939.439	-805	6939.439	-5980	6939.439	-1762.5
6939.44	-6810	6939.44	-6182.5	6939.44	-1007.5	6939.44	-6060	6939.44	-1770
6939.441	-6875	6939.441	-6240	6939.441	-1032.5	6939.441	-6125	6939.441	-1750
6939.442	-6932.5	6939.442	-6125	6939.442	-1232.5	6939.442	-6147.5	6939.442	-1747.5
6939.443	-6880	6939.443	-6120	6939.443	-1172.5	6939.443	-6137.5	6939.443	-1750
6939.444	-6897.5	6939.444	-6090	6939.444	-1295	6939.444	-6127.5	6939.444	-1735
6939.445	-6805	6939.445	-6092.5	6939.445	-1060	6939.445	-6085	6939.445	-1715
6939.446	-6747.5	6939.446	-6060	6939.446	-905	6939.446	-5917.5	6939.446	-1690
6939.447	-6615	6939.447	-5995	6939.447	-587.5	6939.447	-5870	6939.447	-1690
6939.448	-6470	6939.448	-5947.5	6939.448	-472.5	6939.448	-5770	6939.448	-1665
6939.449	-6402.5	6939.449	-5970	6939.449	-492.5	6939.449	-5732.5	6939.449	-1672.5
6939.45	-6307.5	6939.45	-5897.5	6939.45	-302.5	6939.45	-5540	6939.45	-1625
6939.451	-6170	6939.451	-5847.5	6939.451	-117.5	6939.451	-5497.5	6939.451	-1652.5
6939.452	-6102.5	6939.452	-5817.5	6939.452	-132.5	6939.452	-5427.5	6939.452	-1640
6939.453	-6017.5	6939.453	-5860	6939.453	-130	6939.453	-5412.5	6939.453	-1630
6939.454	-5995	6939.454	-5877.5	6939.454	-217.5	6939.454	-5492.5	6939.454	-1587.5
6939.455	-5980	6939.455	-5875	6939.455	-287.5	6939.455	-5520	6939.455	-1587.5
6939.456	-6017.5	6939.456	-5910	6939.456	-540	6939.456	-5550	6939.456	-1570
6939.457	-6182.5	6939.457	-5917.5	6939.457	-832.5	6939.457	-5660	6939.457	-1565
6939.458	-6315	6939.458	-5940	6939.458	-965	6939.458	-5740	6939.458	-1535
6939.459	-6310	6939.459	-6040	6939.459	-1272.5	6939.459	-5835	6939.459	-1570
6939.46	-6335	6939.46	-6092.5	6939.46	-1507.5	6939.46	-5885	6939.46	-1537.5
6939.461	-6527.5	6939.461	-6145	6939.461	-1752.5	6939.461	-6085	6939.461	-1487.5
6939.462	-6530	6939.462	-6127.5	6939.462	-1765	6939.462	-6165	6939.462	-1502.5
6939.463	-6602.5	6939.463	-6200	6939.463	-1825	6939.463	-6210	6939.463	-1527.5
6939.464	-6550	6939.464	-6187.5	6939.464	-1837.5	6939.464	-6215	6939.464	-1475
6939.465	-6467.5	6939.465	-6155	6939.465	-1627.5	6939.465	-6160	6939.465	-1467.5
6939.466	-6400	6939.466	-6140	6939.466	-1562.5	6939.466	-6135	6939.466	-1442.5
6939.467	-6267.5	6939.467	-6127.5	6939.467	-1312.5	6939.467	-6042.5	6939.467	-1440
6939.468	-6167.5	6939.468	-6052.5	6939.468	-1215	6939.468	-5997.5	6939.468	-1425
6939.469	-6060	6939.469	-6060	6939.469	-1197.5	6939.469	-5965	6939.469	-1415
6939.47	-5982.5	6939.47	-5997.5	6939.47	-952.5	6939.47	-5922.5	6939.47	-1400
6939.471	-5845	6939.471	-5967.5	6939.471	-830	6939.471	-5775	6939.471	-1355
6939.472	-5772.5	6939.472	-6020	6939.472	-767.5	6939.472	-5787.5	6939.472	-1377.5
6939.473	-5712.5	6939.473	-6042.5	6939.473	-760	6939.473	-5747.5	6939.473	-1325
6939.474	-5650	6939.474	-5982.5	6939.474	-822.5	6939.474	-5767.5	6939.474	-1282.5
6939.475	-5712.5	6939.475	-6055	6939.475	-947.5	6939.475	-5822.5	6939.475	-1272.5
6939.476	-5775	6939.476	-6100	6939.476	-1315	6939.476	-5950	6939.476	-1255
6939.477	-5920	6939.477	-6185	6939.477	-1407.5	6939.477	-5977.5	6939.477	-1240
6939.478	-6010	6939.478	-6270	6939.478	-1747.5	6939.478	-6100	6939.478	-1220
6939.479	-6127.5	6939.479	-6307.5	6939.479	-1835	6939.479	-6165	6939.479	-1192.5
6939.48	-6172.5	6939.48	-6275	6939.48	-1975	6939.48	-6292.5	6939.48	-1177.5
6939.481	-6250	6939.481	-6430	6939.481	-2340	6939.481	-6337.5	6939.481	-1165
6939.482	-6287.5	6939.482	-6455	6939.482	-2375	6939.482	-6442.5	6939.482	-1140
6939.483	-6245	6939.483	-6465	6939.483	-2422.5	6939.483	-6365	6939.483	-1107.5
6939.484	-6292.5	6939.484	-6430	6939.484	-2325	6939.484	-6330	6939.484	-1100
6939.485	-6195	6939.485	-6420	6939.485	-2295	6939.485	-6295	6939.485	-1070
6939.486	-6132.5	6939.486	-6362.5	6939.486	-2055	6939.486	-6140	6939.486	-1035
6939.487	-5995	6939.487	-6392.5	6939.487	-1972.5	6939.487	-6035	6939.487	-1057.5
6939.488	-5882.5	6939.488	-6220	6939.488	-1707.5	6939.488	-5892.5	6939.488	-1005
6939.489	-5807.5	6939.489	-6215	6939.489	-1617.5	6939.489	-5717.5	6939.489	-977.5
6939.49	-5680	6939.49	-6207.5	6939.49	-1465	6939.49	-5667.5	6939.49	-957.5
6939.491	-5575	6939.491	-6095	6939.491	-1347.5	6939.491	-5505	6939.491	-937.5
6939.492	-5495	6939.492	-6082.5	6939.492	-1325	6939.492	-5430	6939.492	-920
6939.493	-5437.5	6939.493	-6050	6939.493	-1132.5	6939.493	-5395	6939.493	-885
6939.494	-5440	6939.494	-6062.5	6939.494	-1220	6939.494	-5330	6939.494	-890
6939.495	-5500	6939.495	-6027.5	6939.495	-1372.5	6939.495	-5377.5	6939.495	-867.5
6939.496	-5607.5	6939.496	-6035	6939.496	-1600	6939.496	-5410	6939.496	-850
6939.497	-5572.5	6939.497	-6047.5	6939.497	-1907.5	6939.497	-5460	6939.497	-827.5
6939.498	-5770	6939.498	-6087.5	6939.498	-2160	6939.498	-5515	6939.498	-832.5
6939.499	-5750	6939.499	-5980	6939.499	-2212.5	6939.499	-5557.5	6939.499	-802.5
6939.5	-5875	6939.5	-6020	6939.5	-2607.5	6939.5	-5605	6939.5	-800
6939.501	-5960	6939.501	-6002.5	6939.501	-2632.5	6939.501	-5660	6939.501	-787.5
6939.502	-5975	6939.502	-5960	6939.502	-2760	6939.502	-5612.5	6939.502	-747.5
6939.503	-6017.5	6939.503	-5955	6939.503	-2722.5	6939.503	-5610	6939.503	-745
6939.504	-6062.5	6939.504	-5872.5	6939.504	-2710	6939.504	-5580	6939.504	-722.5
6939.505	-5937.5	6939.505	-5772.5	6939.505	-2622.5	6939.505	-5445	6939.505	-697.5
6939.506	-5777.5	6939.506	-5727.5	6939.506	-2447.5	6939.506	-5367.5	6939.506	-677.5
6939.507	-5632.5	6939.507	-5640	6939.507	-2225	6939.507	-5250	6939.507	-667.5
6939.508	-5465	6939.508	-5532.5	6939.508	-1997.5	6939.508	-5090	6939.508	-655
6939.509	-5412.5	6939.509	-5445	6939.509	-1935	6939.509	-5012.5	6939.509	-625
6939.51	-5405	6939.51	-5365	6939.51	-1752.5	6939.51	-4920	6939.51	-615
6939.511	-5155	6939.511	-5230	6939.511	-1497.5	6939.511	-4710	6939.511	-597.5
6939.512	-5165	6939.512	-5237.5	6939.512	-1577.5	6939.512	-4705	6939.512	-572.5
6939.513	-5062.5	6939.513	-5100	6939.513	-1410	6939.513	-4597.5	6939.513	-552.5
6939.514	-4977.5	6939.514	-4992.5	6939.514	-1442.5	6939.514	-4575	6939.514	-540
6939.515	-4972.5	6939.515	-4905	6939.515	-1677.5	6939.515	-4550	6939.515	-552.5
6939.516	-5087.5	6939.516	-4960	6939.516	-1827.5	6939.516	-4565	6939.516	-510
6939.517	-5075	6939.517	-4887.5	6939.517	-2015	6939.517	-4660	6939.517	-497.5
6939.518	-5230	6939.518	-4862.5	6939.518	-2335	6939.518	-4755	6939.518	-502.5
6939.519	-5257.5	6939.519	-4817.5	6939.519	-2567.5	6939.519	-4735	6939.519	-475
6939.52	-5295	6939.52	-4822.5	6939.52	-2685	6939.52	-4737.5	6939.52	-475
6939.521	-5392.5	6939.521	-4860	6939.521	-2925	6939.521	-4835	6939.521	-472.5
6939.522	-5467.5	6939.522	-4907.5	6939.522	-2975	6939.522	-4800	6939.522	-447.5
6939.523	-5452.5	6939.523	-4802.5	6939.523	-2992.5	6939.523	-4790	6939.523	-457.5
6939.524	-5377.5	6939.524	-4777.5	6939.524	-3075	6939.524	-4702.5	6939.524	-457.5
6939.525	-5280	6939.525	-4622.5	6939.525	-2870	6939.525	-4735	6939.525	-450
6939.526	-5077.5	6939.526	-4562.5	6939.526	-2650	6939.526	-4572.5	6939.526	-447.5
6939.527	-5025	6939.527	-4445	6939.527	-2665	6939.527	-4440	6939.527	-420
6939.528	-4882.5	6939.528	-4390	6939.528	-2270	6939.528	-4255	6939.528	-415
6939.529	-4802.5	6939.529	-4285	6939.529	-2195	6939.529	-4165	6939.529	-415
6939.53	-4632.5	6939.53	-4200	6939.53	-1942.5	6939.53	-4055	6939.53	-377.5
6939.531	-4467.5	6939.531	-4117.5	6939.531	-1805	6939.531	-3887.5	6939.531	-400
6939.532	-4385	6939.532	-4102.5	6939.532	-1710	6939.532	-3805	6939.532	-352.5
6939.533	-4287.5	6939.533	-4002.5	6939.533	-1712.5	6939.533	-3882.5	6939.533	-372.5
6939.534	-4225	6939.534	-3952.5	6939.534	-1692.5	6939.534	-3760	6939.534	-370
6939.535	-4252.5	6939.535	-3957.5	6939.535	-1762.5	6939.535	-3770	6939.535	-342.5
6939.536	-4255	6939.536	-3957.5	6939.536	-1917.5	6939.536	-3717.5	6939.536	-340
6939.537	-4335	6939.537	-3855	6939.537	-2167.5	6939.537	-3840	6939.537	-350
6939.538	-4377.5	6939.538	-3960	6939.538	-2457.5	6939.538	-3927.5	6939.538	-362.5
6939.539	-4437.5	6939.539	-3942.5	6939.539	-2622.5	6939.539	-3985	6939.539	-322.5
6939.54	-4397.5	6939.54	-3870	6939.54	-2780	6939.54	-3967.5	6939.54	-327.5
6939.541	-4477.5	6939.541	-3935	6939.541	-2962.5	6939.541	-3997.5	6939.541	-305
6939.542	-4445	6939.542	-3950	6939.542	-2995	6939.542	-4035	6939.542	-317.5
6939.543	-4545	6939.543	-3855	6939.543	-3147.5	6939.543	-4092.5	6939.543	-277.5
6939.544	-4465	6939.544	-3830	6939.544	-3040	6939.544	-4065	6939.544	-302.5
6939.545	-4405	6939.545	-3725	6939.545	-2977.5	6939.545	-3960	6939.545	-295
6939.546	-4205	6939.546	-3705	6939.546	-2872.5	6939.546	-3845	6939.546	-270
6939.547	-4072.5	6939.547	-3632.5	6939.547	-2550	6939.547	-3780	6939.547	-247.5
6939.548	-3945	6939.548	-3510	6939.548	-2297.5	6939.548	-3577.5	6939.548	-257.5
6939.549	-3840	6939.549	-3472.5	6939.549	-2115	6939.549	-3465	6939.549	-270
6939.55	-3680	6939.55	-3425	6939.55	-2092.5	6939.55	-3392.5	6939.55	-265
6939.551	-3525	6939.551	-3362.5	6939.551	-1842.5	6939.551	-3252.5	6939.551	-215
6939.552	-3510	6939.552	-3347.5	6939.552	-1830	6939.552	-3170	6939.552	-235
6939.553	-3320	6939.553	-3275	6939.553	-1787.5	6939.553	-3122.5	6939.553	-222.5
6939.554	-3267.5	6939.554	-3255	6939.554	-1840	6939.554	-3037.5	6939.554	-207.5
6939.555	-3300	6939.555	-3315	6939.555	-2000	6939.555	-3117.5	6939.555	-200
6939.556	-3337.5	6939.556	-3280	6939.556	-2170	6939.556	-3100	6939.556	-225
6939.557	-3425	6939.557	-3275	6939.557	-2310	6939.557	-3127.5	6939.557	-187.5
6939.558	-3465	6939.558	-3310	6939.558	-2502.5	6939.558	-3220	6939.558	-177.5
6939.559	-3622.5	6939.559	-3240	6939.559	-2677.5	6939.559	-3285	6939.559	-177.5
6939.56	-3715	6939.56	-3305	6939.56	-2997.5	6939.56	-3330	6939.56	-190
6939.561	-3702.5	6939.561	-3232.5	6939.561	-3170	6939.561	-3395	6939.561	-175
6939.562	-3707.5	6939.562	-3235	6939.562	-3052.5	6939.562	-3350	6939.562	-172.5
6939.563	-3705	6939.563	-3232.5	6939.563	-3075	6939.563	-3360	6939.563	-155
6939.564	-3680	6939.564	-3217.5	6939.564	-3152.5	6939.564	-3270	6939.564	-145
6939.565	-3577.5	6939.565	-3192.5	6939.565	-3012.5	6939.565	-3220	6939.565	-157.5
6939.566	-3482.5	6939.566	-3080	6939.566	-2830	6939.566	-3162.5	6939.566	-130
6939.567	-3342.5	6939.567	-3015	6939.567	-2545	6939.567	-3015	6939.567	-162.5
6939.568	-3115	6939.568	-2935	6939.568	-2362.5	6939.568	-2827.5	6939.568	-142.5
6939.569	-3042.5	6939.569	-2915	6939.569	-2140	6939.569	-2760	6939.569	-137.5
6939.57	-2915	6939.57	-2880	6939.57	-1960	6939.57	-2607.5	6939.57	-135
6939.571	-2847.5	6939.571	-2810	6939.571	-1787.5	6939.571	-2550	6939.571	-112.5
6939.572	-2705	6939.572	-2710	6939.572	-1792.5	6939.572	-2462.5	6939.572	-107.5
6939.573	-2560	6939.573	-2625	6939.573	-1647.5	6939.573	-2445	6939.573	-107.5
6939.574	-2480	6939.574	-2610	6939.574	-1762.5	6939.574	-2367.5	6939.574	-72.5
6939.575	-2500	6939.575	-2552.5	6939.575	-1815	6939.575	-2307.5	6939.575	-80
6939.576	-2597.5	6939.576	-2620	6939.576	-2070	6939.576	-2387.5	6939.576	-80
6939.577	-2625	6939.577	-2560	6939.577	-2202.5	6939.577	-2435	6939.577	-75
6939.578	-2735	6939.578	-2577.5	6939.578	-2382.5	6939.578	-2467.5	6939.578	-85
6939.579	-2815	6939.579	-2590	6939.579	-2555	6939.579	-2567.5	6939.579	-72.5
6939.58	-2922.5	6939.58	-2595	6939.58	-2725	6939.58	-2592.5	6939.58	-65
6939.581	-2990	6939.581	-2655	6939.581	-2907.5	6939.581	-2727.5	6939.581	-35
6939.582	-3032.5	6939.582	-2610	6939.582	-2975	6939.582	-2717.5	6939.582	-45
6939.583	-3040	6939.583	-2620	6939.583	-3010	6939.583	-2720	6939.583	-30
6939.584	-3022.5	6939.584	-2580	6939.584	-2965	6939.584	-2687.5	6939.584	-55
6939.585	-2912.5	6939.585	-2530	6939.585	-2717.5	6939.585	-2587.5	6939.585	-40
6939.586	-2885	6939.586	-2505	6939.586	-2472.5	6939.586	-2467.5	6939.586	-50
6939.587	-2692.5	6939.587	-2405	6939.587	-2292.5	6939.587	-2367.5	6939.587	-40
6939.588	-2537.5	6939.588	-2230	6939.588	-2147.5	6939.588	-2237.5	6939.588	-15
6939.589	-2402.5	6939.589	-2200	6939.589	-1887.5	6939.589	-2145	6939.589	-45
6939.59	-2290	6939.59	-2182.5	6939.59	-1797.5	6939.59	-2027.5	6939.59	-50
6939.591	-2227.5	6939.591	-2177.5	6939.591	-1747.5	6939.591	-1935	6939.591	-35
6939.592	-2122.5	6939.592	-2035	6939.592	-1662.5	6939.592	-1810	6939.592	-47.5
6939.593	-1960	6939.593	-2010	6939.593	-1500	6939.593	-1722.5	6939.593	-37.5
6939.594	-1982.5	6939.594	-1942.5	6939.594	-1567.5	6939.594	-1705	6939.594	-5
6939.595	-2000	6939.595	-1945	6939.595	-1650	6939.595	-1747.5	6939.595	-37.5
6939.596	-2035	6939.596	-1930	6939.596	-1832.5	6939.596	-1750	6939.596	-10
6939.597	-2112.5	6939.597	-1937.5	6939.597	-2017.5	6939.597	-1742.5	6939.597	-10
6939.598	-2145	6939.598	-1940	6939.598	-2307.5	6939.598	-1882.5	6939.598	10
6939.599	-2210	6939.599	-1912.5	6939.599	-2530	6939.599	-1925	6939.599	0
6939.6	-2360	6939.6	-1910	6939.6	-2557.5	6939.6	-2010	6939.6	5
6939.601	-2390	6939.601	-2017.5	6939.601	-2727.5	6939.601	-2067.5	6939.601	10
6939.602	-2310	6939.602	-1767.5	6939.602	-2675	6939.602	-1877.5	6939.602	57.5
6939.603	-2060	6939.603	-1525	6939.603	-2552.5	6939.603	-1620	6939.603	127.5
6939.604	-1342.5	6939.604	-790	6939.604	-1897.5	6939.604	-907.5	6939.604	340
6939.605	-672.5	6939.605	-77.5	6939.605	-1247.5	6939.605	-230	6939.605	465
6939.606	95	6939.606	762.5	6939.606	-417.5	6939.606	622.5	6939.606	662.5
6939.607	892.5	6939.607	1507.5	6939.607	300	6939.607	1325	6939.607	840
6939.608	1582.5	6939.608	2135	6939.608	1130	6939.608	2022.5	6939.608	952.5
6939.609	2485	6939.609	2962.5	6939.609	2010	6939.609	2900	6939.609	1160
6939.61	1912.5	6939.61	2215	6939.61	1912.5	6939.61	2230	6939.61	932.5
