D1(X)	D1(Y)	D3(X)	D3(Y)	D4(X)	D4(Y)	C3(X)	C3(Y)	C2(X)	C2(Y)
2000.746	-4372.5	2000.746	-3652.5	2000.746	-1090	2000.746	-3520	2000.746	-3970
2000.747	-4242.5	2000.747	-3465	2000.747	-995	2000.747	-3382.5	2000.747	-3830
2000.748	-3875	2000.748	-3280	2000.748	-960	2000.748	-3260	2000.748	-3620
2000.749	-3530	2000.749	-3110	2000.749	-922.5	2000.749	-3162.5	2000.749	-3417.5
2000.75	-3320	2000.75	-2897.5	2000.75	-830	2000.75	-3062.5	2000.75	-3310
2000.751	-3022.5	2000.751	-2800	2000.751	-792.5	2000.751	-2915	2000.751	-3122.5
2000.752	-2957.5	2000.752	-2677.5	2000.752	-772.5	2000.752	-2865	2000.752	-3045
2000.753	-2767.5	2000.753	-2525	2000.753	-680	2000.753	-2675	2000.753	-2807.5
2000.754	-2725	2000.754	-2425	2000.754	-635	2000.754	-2625	2000.754	-2730
2000.755	-2812.5	2000.755	-2435	2000.755	-625	2000.755	-2655	2000.755	-2642.5
2000.756	-2960	2000.756	-2392.5	2000.756	-600	2000.756	-2602.5	2000.756	-2747.5
2000.757	-3012.5	2000.757	-2420	2000.757	-545	2000.757	-2562.5	2000.757	-2702.5
2000.758	-3220	2000.758	-2417.5	2000.758	-535	2000.758	-2557.5	2000.758	-2755
2000.759	-3482.5	2000.759	-2482.5	2000.759	-455	2000.759	-2492.5	2000.759	-2827.5
2000.76	-3412.5	2000.76	-2457.5	2000.76	-427.5	2000.76	-2462.5	2000.76	-2787.5
2000.761	-3485	2000.761	-2542.5	2000.761	-387.5	2000.761	-2347.5	2000.761	-2850
2000.762	-3490	2000.762	-2492.5	2000.762	-345	2000.762	-2305	2000.762	-2875
2000.763	-3365	2000.763	-2422.5	2000.763	-327.5	2000.763	-2210	2000.763	-2797.5
2000.764	-3292.5	2000.764	-2465	2000.764	-312.5	2000.764	-2192.5	2000.764	-2752.5
2000.765	-3160	2000.765	-2452.5	2000.765	-287.5	2000.765	-2190	2000.765	-2677.5
2000.766	-2837.5	2000.766	-2260	2000.766	-242.5	2000.766	-2117.5	2000.766	-2567.5
2000.767	-2830	2000.767	-2205	2000.767	-232.5	2000.767	-2077.5	2000.767	-2475
2000.768	-2392.5	2000.768	-2075	2000.768	-232.5	2000.768	-2052.5	2000.768	-2327.5
2000.769	-2317.5	2000.769	-1925	2000.769	-250	2000.769	-2010	2000.769	-2112.5
2000.77	-2097.5	2000.77	-1840	2000.77	-220	2000.77	-1910	2000.77	-2062.5
2000.771	-2012.5	2000.771	-1815	2000.771	-240	2000.771	-1835	2000.771	-1987.5
2000.772	-2020	2000.772	-1720	2000.772	-245	2000.772	-1810	2000.772	-1927.5
2000.773	-1930	2000.773	-1657.5	2000.773	-237.5	2000.773	-1830	2000.773	-1915
2000.774	-1857.5	2000.774	-1732.5	2000.774	-267.5	2000.774	-1955	2000.774	-1975
2000.775	-2232.5	2000.775	-2007.5	2000.775	-455	2000.775	-2200	2000.775	-2227.5
2000.776	-3172.5	2000.776	-2990	2000.776	-997.5	2000.776	-3147.5	2000.776	-3060
2000.777	-3637.5	2000.777	-3480	2000.777	-1235	2000.777	-3690	2000.777	-3595
2000.778	-3090	2000.778	-2400	2000.778	-502.5	2000.778	-2625	2000.778	-2530
2000.779	-742.5	2000.779	-40	2000.779	667.5	2000.779	207.5	2000.779	422.5
2000.78	4192.5	2000.78	4965	2000.78	3330	2000.78	6205	2000.78	6630
2000.781	12090	2000.781	12765	2000.781	7165	2000.781	15085	2000.781	15925
2000.782	21857.5	2000.782	22335	2000.782	11910	2000.782	25810	2000.782	26555
2000.783	29820	2000.783	30727.5	2000.783	16552.5	2000.783	34965	2000.783	34995
2000.784	36007.5	2000.784	39797.5	2000.784	22092.5	2000.784	44295	2000.784	41880
2000.785	41102.5	2000.785	50385	2000.785	27292.5	2000.785	54530	2000.785	47430
2000.786	45775	2000.786	57427.5	2000.786	26067.5	2000.786	59575	2000.786	50472.5
2000.787	51040	2000.787	60470	2000.787	22145	2000.787	56520	2000.787	51895
2000.788	55617.5	2000.788	66737.5	2000.788	20040	2000.788	3337.5	2000.788	43465
2000.789	38730	2000.789	-6495	2000.789	-14125	2000.789	-16850	2000.789	-11272.5
2000.79	4792.5	2000.79	-13762.5	2000.79	-8032.5	2000.79	-10177.5	2000.79	-6597.5
2000.791	3195	2000.791	-6127.5	2000.791	-4267.5	2000.791	-7142.5	2000.791	-3847.5
2000.792	6077.5	2000.792	-1712.5	2000.792	-1792.5	2000.792	-3140	2000.792	-90
2000.793	8685	2000.793	1127.5	2000.793	-355	2000.793	-37.5	2000.793	2945
2000.794	10447.5	2000.794	2662.5	2000.794	42.5	2000.794	1427.5	2000.794	4620
2000.795	11470	2000.795	3122.5	2000.795	-87.5	2000.795	1607.5	2000.795	5262.5
2000.796	12907.5	2000.796	4270	2000.796	287.5	2000.796	2537.5	2000.796	6477.5
2000.797	14845	2000.797	5560	2000.797	617.5	2000.797	3465	2000.797	7747.5
2000.798	16842.5	2000.798	6962.5	2000.798	942.5	2000.798	4355	2000.798	9132.5
2000.799	18952.5	2000.799	8607.5	2000.799	1382.5	2000.799	5442.5	2000.799	10682.5
2000.8	20875	2000.8	10297.5	2000.8	1817.5	2000.8	6500	2000.8	12257.5
2000.801	22440	2000.801	12150	2000.801	2387.5	2000.801	7945	2000.801	13822.5
2000.802	23745	2000.802	14120	2000.802	3177.5	2000.802	9615	2000.802	15382.5
2000.803	24602.5	2000.803	15840	2000.803	3997.5	2000.803	11350	2000.803	16802.5
2000.804	24872.5	2000.804	17295	2000.804	4885	2000.804	12997.5	2000.804	17870
2000.805	25055	2000.805	18267.5	2000.805	5665	2000.805	14445	2000.805	18610
2000.806	25012.5	2000.806	18950	2000.806	6320	2000.806	15670	2000.806	19187.5
2000.807	24687.5	2000.807	19330	2000.807	6767.5	2000.807	16572.5	2000.807	19460
2000.808	24342.5	2000.808	19355	2000.808	7060	2000.808	17190	2000.808	19520
2000.809	23885	2000.809	19207.5	2000.809	7217.5	2000.809	17482.5	2000.809	19447.5
2000.81	23205	2000.81	18872.5	2000.81	7180	2000.81	17455	2000.81	19082.5
2000.811	22567.5	2000.811	18395	2000.811	7030	2000.811	17257.5	2000.811	18697.5
2000.812	21775	2000.812	17800	2000.812	6795	2000.812	16927.5	2000.812	18087.5
2000.813	20982.5	2000.813	17207.5	2000.813	6492.5	2000.813	16452.5	2000.813	17587.5
2000.814	20157.5	2000.814	16515	2000.814	6215	2000.814	15890	2000.814	16942.5
2000.815	19145	2000.815	15767.5	2000.815	5900	2000.815	15327.5	2000.815	16280
2000.816	18052.5	2000.816	14972.5	2000.816	5630	2000.816	14802.5	2000.816	15525
2000.817	17045	2000.817	14272.5	2000.817	5325	2000.817	14210	2000.817	14857.5
2000.818	16152.5	2000.818	13490	2000.818	4985	2000.818	13692.5	2000.818	14127.5
2000.819	15130	2000.819	12775	2000.819	4655	2000.819	13075	2000.819	13442.5
2000.82	14250	2000.82	12072.5	2000.82	4382.5	2000.82	12482.5	2000.82	12727.5
2000.821	13630	2000.821	11337.5	2000.821	4110	2000.821	11877.5	2000.821	12082.5
2000.822	12777.5	2000.822	10677.5	2000.822	3822.5	2000.822	11342.5	2000.822	11342.5
2000.823	12310	2000.823	10077.5	2000.823	3547.5	2000.823	10797.5	2000.823	10817.5
2000.824	11697.5	2000.824	9477.5	2000.824	3302.5	2000.824	10277.5	2000.824	10292.5
2000.825	11170	2000.825	8995	2000.825	3070	2000.825	9847.5	2000.825	9885
2000.826	10700	2000.826	8577.5	2000.826	2845	2000.826	9482.5	2000.826	9530
2000.827	10445	2000.827	8202.5	2000.827	2660	2000.827	9115	2000.827	9175
2000.828	10232.5	2000.828	7915	2000.828	2457.5	2000.828	8790	2000.828	8927.5
2000.829	9922.5	2000.829	7620	2000.829	2275	2000.829	8322.5	2000.829	8652.5
2000.83	9517.5	2000.83	7290	2000.83	2097.5	2000.83	7987.5	2000.83	8407.5
2000.831	9252.5	2000.831	7037.5	2000.831	1960	2000.831	7762.5	2000.831	8222.5
2000.832	8892.5	2000.832	6687.5	2000.832	1812.5	2000.832	7402.5	2000.832	7847.5
2000.833	8462.5	2000.833	6402.5	2000.833	1657.5	2000.833	7065	2000.833	7575
2000.834	8285	2000.834	6185	2000.834	1520	2000.834	6840	2000.834	7317.5
2000.835	7742.5	2000.835	5867.5	2000.835	1407.5	2000.835	6552.5	2000.835	7000
2000.836	7112.5	2000.836	5457.5	2000.836	1260	2000.836	6235	2000.836	6670
2000.837	6625	2000.837	5077.5	2000.837	1160	2000.837	5957.5	2000.837	6277.5
2000.838	6052.5	2000.838	4737.5	2000.838	1020	2000.838	5700	2000.838	5930
2000.839	5505	2000.839	4360	2000.839	937.5	2000.839	5420	2000.839	5625
2000.84	5195	2000.84	4082.5	2000.84	865	2000.84	5182.5	2000.84	5297.5
2000.841	4690	2000.841	3787.5	2000.841	812.5	2000.841	4980	2000.841	4982.5
2000.842	4620	2000.842	3492.5	2000.842	712.5	2000.842	4772.5	2000.842	4810
2000.843	4280	2000.843	3250	2000.843	620	2000.843	4600	2000.843	4582.5
2000.844	4025	2000.844	3025	2000.844	575	2000.844	4397.5	2000.844	4370
2000.845	3930	2000.845	2805	2000.845	485	2000.845	4220	2000.845	4160
2000.846	3795	2000.846	2652.5	2000.846	417.5	2000.846	4062.5	2000.846	3980
2000.847	3815	2000.847	2612.5	2000.847	367.5	2000.847	4017.5	2000.847	3915
2000.848	3897.5	2000.848	2655	2000.848	320	2000.848	3890	2000.848	3845
2000.849	3892.5	2000.849	2540	2000.849	235	2000.849	3747.5	2000.849	3840
2000.85	3640	2000.85	2365	2000.85	205	2000.85	3607.5	2000.85	3667.5
2000.851	3650	2000.851	2337.5	2000.851	145	2000.851	3450	2000.851	3587.5
2000.852	3417.5	2000.852	2232.5	2000.852	107.5	2000.852	3340	2000.852	3497.5
2000.853	3362.5	2000.853	2052.5	2000.853	22.5	2000.853	3152.5	2000.853	3317.5
2000.854	3165	2000.854	1920	2000.854	-50	2000.854	2940	2000.854	3155
2000.855	2740	2000.855	1672.5	2000.855	-110	2000.855	2877.5	2000.855	2942.5
2000.856	2272.5	2000.856	1520	2000.856	-157.5	2000.856	2612.5	2000.856	2662.5
2000.857	1955	2000.857	1297.5	2000.857	-200	2000.857	2445	2000.857	2472.5
2000.858	1342.5	2000.858	1032.5	2000.858	-255	2000.858	2217.5	2000.858	2075
2000.859	935	2000.859	720	2000.859	-315	2000.859	2030	2000.859	1780
2000.86	622.5	2000.86	470	2000.86	-370	2000.86	1800	2000.86	1527.5
2000.861	325	2000.861	237.5	2000.861	-435	2000.861	1590	2000.861	1270
2000.862	180	2000.862	-45	2000.862	-460	2000.862	1410	2000.862	1017.5
2000.863	-105	2000.863	-200	2000.863	-530	2000.863	1245	2000.863	767.5
2000.864	-557.5	2000.864	-432.5	2000.864	-615	2000.864	1052.5	2000.864	452.5
2000.865	-485	2000.865	-642.5	2000.865	-685	2000.865	902.5	2000.865	300
2000.866	-430	2000.866	-632.5	2000.866	-752.5	2000.866	725	2000.866	265
2000.867	-497.5	2000.867	-750	2000.867	-767.5	2000.867	582.5	2000.867	142.5
2000.868	-300	2000.868	-790	2000.868	-807.5	2000.868	472.5	2000.868	145
2000.869	-212.5	2000.869	-830	2000.869	-860	2000.869	277.5	2000.869	60
2000.87	-435	2000.87	-925	2000.87	-925	2000.87	130	2000.87	-95
2000.871	-457.5	2000.871	-985	2000.871	-992.5	2000.871	12.5	2000.871	-190
2000.872	-615	2000.872	-1057.5	2000.872	-1032.5	2000.872	-212.5	2000.872	-295
2000.873	-870	2000.873	-1150	2000.873	-1100	2000.873	-385	2000.873	-445
2000.874	-972.5	2000.874	-1262.5	2000.874	-1122.5	2000.874	-527.5	2000.874	-560
2000.875	-1257.5	2000.875	-1417.5	2000.875	-1162.5	2000.875	-692.5	2000.875	-775
2000.876	-1732.5	2000.876	-1600	2000.876	-1217.5	2000.876	-872.5	2000.876	-1052.5
2000.877	-2107.5	2000.877	-1930	2000.877	-1265	2000.877	-1047.5	2000.877	-1247.5
2000.878	-2430	2000.878	-2047.5	2000.878	-1317.5	2000.878	-1172.5	2000.878	-1492.5
2000.879	-2747.5	2000.879	-2315	2000.879	-1347.5	2000.879	-1435	2000.879	-1810
2000.88	-2995	2000.88	-2442.5	2000.88	-1322.5	2000.88	-1580	2000.88	-2015
2000.881	-3385	2000.881	-2695	2000.881	-1397.5	2000.881	-1762.5	2000.881	-2255
2000.882	-3425	2000.882	-2792.5	2000.882	-1427.5	2000.882	-1842.5	2000.882	-2415
2000.883	-3657.5	2000.883	-2977.5	2000.883	-1465	2000.883	-2015	2000.883	-2565
2000.884	-3787.5	2000.884	-3110	2000.884	-1532.5	2000.884	-2182.5	2000.884	-2732.5
2000.885	-3747.5	2000.885	-3202.5	2000.885	-1595	2000.885	-2292.5	2000.885	-2825
2000.886	-3657.5	2000.886	-3220	2000.886	-1615	2000.886	-2310	2000.886	-2830
2000.887	-3680	2000.887	-3267.5	2000.887	-1670	2000.887	-2442.5	2000.887	-2887.5
2000.888	-3495	2000.888	-3235	2000.888	-1672.5	2000.888	-2487.5	2000.888	-2930
2000.889	-3457.5	2000.889	-3147.5	2000.889	-1665	2000.889	-2607.5	2000.889	-2887.5
2000.89	-3495	2000.89	-3140	2000.89	-1720	2000.89	-2677.5	2000.89	-2850
2000.891	-3332.5	2000.891	-3195	2000.891	-1710	2000.891	-2720	2000.891	-2857.5
2000.892	-3457.5	2000.892	-3222.5	2000.892	-1757.5	2000.892	-2765	2000.892	-2920
2000.893	-3575	2000.893	-3215	2000.893	-1790	2000.893	-2952.5	2000.893	-3027.5
2000.894	-3495	2000.894	-3250	2000.894	-1792.5	2000.894	-2947.5	2000.894	-2995
2000.895	-3630	2000.895	-3380	2000.895	-1787.5	2000.895	-3070	2000.895	-3102.5
2000.896	-4042.5	2000.896	-3455	2000.896	-1817.5	2000.896	-3107.5	2000.896	-3227.5
2000.897	-4127.5	2000.897	-3572.5	2000.897	-1832.5	2000.897	-3257.5	2000.897	-3357.5
2000.898	-4490	2000.898	-3750	2000.898	-1842.5	2000.898	-3325	2000.898	-3517.5
2000.899	-4690	2000.899	-3892.5	2000.899	-1812.5	2000.899	-3392.5	2000.899	-3682.5
2000.9	-4937.5	2000.9	-4017.5	2000.9	-1850	2000.9	-3427.5	2000.9	-3820
2000.901	-5195	2000.901	-4112.5	2000.901	-1847.5	2000.901	-3527.5	2000.901	-3922.5
2000.902	-5227.5	2000.902	-4237.5	2000.902	-1807.5	2000.902	-3627.5	2000.902	-3965
2000.903	-5265	2000.903	-4302.5	2000.903	-1837.5	2000.903	-3642.5	2000.903	-4115
2000.904	-5277.5	2000.904	-4445	2000.904	-1835	2000.904	-3762.5	2000.904	-4240
2000.905	-5175	2000.905	-4407.5	2000.905	-1855	2000.905	-3772.5	2000.905	-4220
2000.906	-4945	2000.906	-4335	2000.906	-1850	2000.906	-3775	2000.906	-4090
2000.907	-4795	2000.907	-4287.5	2000.907	-1842.5	2000.907	-3765	2000.907	-4077.5
2000.908	-4545	2000.908	-4222.5	2000.908	-1825	2000.908	-3770	2000.908	-3972.5
2000.909	-4432.5	2000.909	-4060	2000.909	-1782.5	2000.909	-3660	2000.909	-3825
2000.91	-4265	2000.91	-3967.5	2000.91	-1750	2000.91	-3657.5	2000.91	-3802.5
2000.911	-4062.5	2000.911	-3897.5	2000.911	-1717.5	2000.911	-3642.5	2000.911	-3660
2000.912	-4062.5	2000.912	-3825	2000.912	-1707.5	2000.912	-3655	2000.912	-3605
2000.913	-4032.5	2000.913	-3800	2000.913	-1712.5	2000.913	-3612.5	2000.913	-3612.5
2000.914	-4032.5	2000.914	-3787.5	2000.914	-1672.5	2000.914	-3682.5	2000.914	-3577.5
2000.915	-4142.5	2000.915	-3815	2000.915	-1690	2000.915	-3745	2000.915	-3582.5
2000.916	-4440	2000.916	-3917.5	2000.916	-1667.5	2000.916	-3745	2000.916	-3720
2000.917	-4495	2000.917	-3945	2000.917	-1662.5	2000.917	-3787.5	2000.917	-3775
2000.918	-4795	2000.918	-4020	2000.918	-1652.5	2000.918	-3820	2000.918	-3860
2000.919	-5030	2000.919	-4170	2000.919	-1632.5	2000.919	-3842.5	2000.919	-4010
2000.92	-5130	2000.92	-4205	2000.92	-1657.5	2000.92	-3822.5	2000.92	-4112.5
2000.921	-5442.5	2000.921	-4342.5	2000.921	-1642.5	2000.921	-3905	2000.921	-4280
2000.922	-5362.5	2000.922	-4365	2000.922	-1620	2000.922	-3842.5	2000.922	-4260
2000.923	-5265	2000.923	-4432.5	2000.923	-1572.5	2000.923	-3917.5	2000.923	-4295
2000.924	-5400	2000.924	-4457.5	2000.924	-1622.5	2000.924	-3867.5	2000.924	-4337.5
2000.925	-5077.5	2000.925	-4370	2000.925	-1577.5	2000.925	-3752.5	2000.925	-4287.5
2000.926	-4892.5	2000.926	-4277.5	2000.926	-1600	2000.926	-3832.5	2000.926	-4217.5
2000.927	-4770	2000.927	-4180	2000.927	-1537.5	2000.927	-3820	2000.927	-4095
2000.928	-4530	2000.928	-4160	2000.928	-1550	2000.928	-3707.5	2000.928	-3950
2000.929	-4445	2000.929	-4027.5	2000.929	-1545	2000.929	-3807.5	2000.929	-3912.5
2000.93	-4270	2000.93	-3932.5	2000.93	-1507.5	2000.93	-3680	2000.93	-3800
2000.931	-4057.5	2000.931	-3837.5	2000.931	-1517.5	2000.931	-3660	2000.931	-3697.5
2000.932	-3985	2000.932	-3785	2000.932	-1477.5	2000.932	-3677.5	2000.932	-3610
2000.933	-4060	2000.933	-3695	2000.933	-1470	2000.933	-3637.5	2000.933	-3635
2000.934	-3942.5	2000.934	-3675	2000.934	-1447.5	2000.934	-3632.5	2000.934	-3602.5
2000.935	-4020	2000.935	-3630	2000.935	-1442.5	2000.935	-3642.5	2000.935	-3592.5
2000.936	-4410	2000.936	-3827.5	2000.936	-1450	2000.936	-3732.5	2000.936	-3725
2000.937	-4550	2000.937	-3892.5	2000.937	-1440	2000.937	-3700	2000.937	-3775
2000.938	-4915	2000.938	-4005	2000.938	-1437.5	2000.938	-3730	2000.938	-3840
2000.939	-4962.5	2000.939	-4045	2000.939	-1405	2000.939	-3717.5	2000.939	-3947.5
2000.94	-5077.5	2000.94	-4127.5	2000.94	-1420	2000.94	-3797.5	2000.94	-4057.5
2000.941	-5295	2000.941	-4247.5	2000.941	-1405	2000.941	-3830	2000.941	-4175
2000.942	-5252.5	2000.942	-4342.5	2000.942	-1432.5	2000.942	-3802.5	2000.942	-4175
2000.943	-5207.5	2000.943	-4267.5	2000.943	-1395	2000.943	-3817.5	2000.943	-4230
2000.944	-5165	2000.944	-4250	2000.944	-1365	2000.944	-3852.5	2000.944	-4220
2000.945	-5040	2000.945	-4282.5	2000.945	-1375	2000.945	-3795	2000.945	-4125
2000.946	-4750	2000.946	-4180	2000.946	-1332.5	2000.946	-3715	2000.946	-4032.5
2000.947	-4630	2000.947	-4030	2000.947	-1297.5	2000.947	-3632.5	2000.947	-3997.5
2000.948	-4385	2000.948	-3942.5	2000.948	-1315	2000.948	-3577.5	2000.948	-3837.5
2000.949	-4092.5	2000.949	-3807.5	2000.949	-1247.5	2000.949	-3520	2000.949	-3645
2000.95	-3895	2000.95	-3710	2000.95	-1242.5	2000.95	-3400	2000.95	-3607.5
2000.951	-3815	2000.951	-3567.5	2000.951	-1255	2000.951	-3332.5	2000.951	-3497.5
2000.952	-3700	2000.952	-3545	2000.952	-1177.5	2000.952	-3377.5	2000.952	-3417.5
2000.953	-3625	2000.953	-3512.5	2000.953	-1175	2000.953	-3335	2000.953	-3400
2000.954	-3840	2000.954	-3485	2000.954	-1185	2000.954	-3410	2000.954	-3385
2000.955	-3767.5	2000.955	-3417.5	2000.955	-1135	2000.955	-3342.5	2000.955	-3410
2000.956	-3990	2000.956	-3477.5	2000.956	-1162.5	2000.956	-3445	2000.956	-3382.5
2000.957	-4257.5	2000.957	-3555	2000.957	-1125	2000.957	-3370	2000.957	-3410
2000.958	-4445	2000.958	-3650	2000.958	-1160	2000.958	-3465	2000.958	-3522.5
2000.959	-4500	2000.959	-3712.5	2000.959	-1080	2000.959	-3465	2000.959	-3592.5
2000.96	-4570	2000.96	-3777.5	2000.96	-1092.5	2000.96	-3477.5	2000.96	-3740
2000.961	-4825	2000.961	-3865	2000.961	-1062.5	2000.961	-3412.5	2000.961	-3812.5
2000.962	-4852.5	2000.962	-3842.5	2000.962	-1062.5	2000.962	-3367.5	2000.962	-3832.5
2000.963	-4850	2000.963	-3907.5	2000.963	-1010	2000.963	-3357.5	2000.963	-3845
2000.964	-4835	2000.964	-3897.5	2000.964	-1012.5	2000.964	-3405	2000.964	-3820
2000.965	-4665	2000.965	-3837.5	2000.965	-960	2000.965	-3375	2000.965	-3782.5
2000.966	-4345	2000.966	-3792.5	2000.966	-935	2000.966	-3282.5	2000.966	-3670
2000.967	-4082.5	2000.967	-3675	2000.967	-922.5	2000.967	-3237.5	2000.967	-3582.5
2000.968	-4110	2000.968	-3580	2000.968	-927.5	2000.968	-3252.5	2000.968	-3542.5
2000.969	-3905	2000.969	-3515	2000.969	-932.5	2000.969	-3142.5	2000.969	-3412.5
2000.97	-3755	2000.97	-3427.5	2000.97	-932.5	2000.97	-3100	2000.97	-3317.5
2000.971	-3617.5	2000.971	-3262.5	2000.971	-907.5	2000.971	-3115	2000.971	-3250
2000.972	-3615	2000.972	-3162.5	2000.972	-897.5	2000.972	-3167.5	2000.972	-3182.5
2000.973	-3522.5	2000.973	-3125	2000.973	-902.5	2000.973	-3142.5	2000.973	-3132.5
2000.974	-3510	2000.974	-3195	2000.974	-860	2000.974	-3040	2000.974	-3092.5
2000.975	-3670	2000.975	-3120	2000.975	-865	2000.975	-3022.5	2000.975	-3090
2000.976	-3777.5	2000.976	-3202.5	2000.976	-812.5	2000.976	-3130	2000.976	-3200
2000.977	-4017.5	2000.977	-3297.5	2000.977	-837.5	2000.977	-3122.5	2000.977	-3235
2000.978	-4170	2000.978	-3310	2000.978	-825	2000.978	-3162.5	2000.978	-3395
2000.979	-4197.5	2000.979	-3410	2000.979	-790	2000.979	-3222.5	2000.979	-3427.5
2000.98	-4347.5	2000.98	-3445	2000.98	-755	2000.98	-3160	2000.98	-3440
2000.981	-4480	2000.981	-3467.5	2000.981	-737.5	2000.981	-3180	2000.981	-3545
2000.982	-4527.5	2000.982	-3537.5	2000.982	-715	2000.982	-3182.5	2000.982	-3620
2000.983	-4567.5	2000.983	-3587.5	2000.983	-730	2000.983	-3182.5	2000.983	-3615
2000.984	-4562.5	2000.984	-3592.5	2000.984	-717.5	2000.984	-3237.5	2000.984	-3652.5
2000.985	-4425	2000.985	-3570	2000.985	-702.5	2000.985	-3237.5	2000.985	-3642.5
2000.986	-4150	2000.986	-3500	2000.986	-710	2000.986	-3180	2000.986	-3570
2000.987	-3840	2000.987	-3430	2000.987	-707.5	2000.987	-3090	2000.987	-3410
2000.988	-3592.5	2000.988	-3312.5	2000.988	-685	2000.988	-3067.5	2000.988	-3317.5
2000.989	-3565	2000.989	-3182.5	2000.989	-712.5	2000.989	-3060	2000.989	-3257.5
2000.99	-3555	2000.99	-3170	2000.99	-712.5	2000.99	-3080	2000.99	-3127.5
2000.991	-3155	2000.991	-3057.5	2000.991	-712.5	2000.991	-2977.5	2000.991	-3087.5
2000.992	-3052.5	2000.992	-2987.5	2000.992	-677.5	2000.992	-2990	2000.992	-2930
2000.993	-3040	2000.993	-2882.5	2000.993	-682.5	2000.993	-2970	2000.993	-2935
2000.994	-3085	2000.994	-2877.5	2000.994	-655	2000.994	-2957.5	2000.994	-2870
2000.995	-3030	2000.995	-2825	2000.995	-645	2000.995	-2967.5	2000.995	-2892.5
2000.996	-3440	2000.996	-2882.5	2000.996	-670	2000.996	-2945	2000.996	-3032.5
2000.997	-3515	2000.997	-2947.5	2000.997	-660	2000.997	-3012.5	2000.997	-3052.5
2000.998	-3637.5	2000.998	-3090	2000.998	-630	2000.998	-3010	2000.998	-3155
2000.999	-3910	2000.999	-3150	2000.999	-655	2000.999	-3035	2000.999	-3257.5
2001	-4082.5	2001	-3225	2001	-632.5	2001	-3097.5	2001	-3385
2001.001	-4190	2001.001	-3302.5	2001.001	-675	2001.001	-3150	2001.001	-3475
2001.002	-4302.5	2001.002	-3450	2001.002	-680	2001.002	-3200	2001.002	-3555
2001.003	-4260	2001.003	-3390	2001.003	-637.5	2001.003	-3235	2001.003	-3547.5
2001.004	-4280	2001.004	-3345	2001.004	-580	2001.004	-3090	2001.004	-3552.5
2001.005	-4087.5	2001.005	-3327.5	2001.005	-610	2001.005	-3100	2001.005	-3495
2001.006	-3925	2001.006	-3265	2001.006	-590	2001.006	-3087.5	2001.006	-3390
2001.007	-3825	2001.007	-3155	2001.007	-565	2001.007	-3057.5	2001.007	-3295
2001.008	-3567.5	2001.008	-3107.5	2001.008	-527.5	2001.008	-3002.5	2001.008	-3180
2001.009	-3370	2001.009	-2980	2001.009	-537.5	2001.009	-2947.5	2001.009	-3105
2001.01	-3260	2001.01	-2907.5	2001.01	-535	2001.01	-2932.5	2001.01	-3030
2001.011	-3082.5	2001.011	-2760	2001.011	-507.5	2001.011	-2872.5	2001.011	-2910
2001.012	-3095	2001.012	-2745	2001.012	-512.5	2001.012	-2897.5	2001.012	-2882.5
2001.013	-3055	2001.013	-2695	2001.013	-505	2001.013	-2875	2001.013	-2927.5
2001.014	-2957.5	2001.014	-2665	2001.014	-490	2001.014	-2877.5	2001.014	-2792.5
2001.015	-3017.5	2001.015	-2650	2001.015	-465	2001.015	-2865	2001.015	-2807.5
2001.016	-3277.5	2001.016	-2677.5	2001.016	-457.5	2001.016	-2840	2001.016	-2852.5
2001.017	-3602.5	2001.017	-2742.5	2001.017	-430	2001.017	-2842.5	2001.017	-2955
2001.018	-3870	2001.018	-2770	2001.018	-455	2001.018	-2935	2001.018	-3090
2001.019	-4100	2001.019	-2927.5	2001.019	-480	2001.019	-2952.5	2001.019	-3215
2001.02	-4052.5	2001.02	-3022.5	2001.02	-440	2001.02	-2965	2001.02	-3230
2001.021	-4345	2001.021	-3032.5	2001.021	-442.5	2001.021	-2952.5	2001.021	-3332.5
2001.022	-4295	2001.022	-3117.5	2001.022	-442.5	2001.022	-2912.5	2001.022	-3390
2001.023	-4310	2001.023	-3112.5	2001.023	-412.5	2001.023	-2862.5	2001.023	-3415
2001.024	-4242.5	2001.024	-3087.5	2001.024	-390	2001.024	-2937.5	2001.024	-3347.5
2001.025	-4190	2001.025	-3152.5	2001.025	-412.5	2001.025	-2882.5	2001.025	-3382.5
2001.026	-3975	2001.026	-3082.5	2001.026	-407.5	2001.026	-2900	2001.026	-3305
2001.027	-3870	2001.027	-3002.5	2001.027	-397.5	2001.027	-2880	2001.027	-3290
2001.028	-3662.5	2001.028	-2832.5	2001.028	-437.5	2001.028	-2865	2001.028	-3152.5
2001.029	-3467.5	2001.029	-2785	2001.029	-387.5	2001.029	-2832.5	2001.029	-3045
2001.03	-3417.5	2001.03	-2672.5	2001.03	-432.5	2001.03	-2842.5	2001.03	-3022.5
2001.031	-3167.5	2001.031	-2525	2001.031	-367.5	2001.031	-2732.5	2001.031	-2845
2001.032	-3090	2001.032	-2482.5	2001.032	-372.5	2001.032	-2625	2001.032	-2795
2001.033	-3117.5	2001.033	-2400	2001.033	-312.5	2001.033	-2577.5	2001.033	-2685
2001.034	-3037.5	2001.034	-2310	2001.034	-335	2001.034	-2560	2001.034	-2635
2001.035	-3060	2001.035	-2290	2001.035	-272.5	2001.035	-2590	2001.035	-2615
2001.036	-3372.5	2001.036	-2340	2001.036	-287.5	2001.036	-2590	2001.036	-2697.5
2001.037	-3445	2001.037	-2460	2001.037	-282.5	2001.037	-2555	2001.037	-2800
2001.038	-3727.5	2001.038	-2575	2001.038	-290	2001.038	-2615	2001.038	-2945
2001.039	-3985	2001.039	-2695	2001.039	-297.5	2001.039	-2722.5	2001.039	-3090
2001.04	-4217.5	2001.04	-2810	2001.04	-347.5	2001.04	-2690	2001.04	-3160
2001.041	-4430	2001.041	-2870	2001.041	-370	2001.041	-2717.5	2001.041	-3240
2001.042	-4345	2001.042	-2882.5	2001.042	-362.5	2001.042	-2765	2001.042	-3335
2001.043	-4432.5	2001.043	-2902.5	2001.043	-355	2001.043	-2775	2001.043	-3367.5
2001.044	-4390	2001.044	-2935	2001.044	-357.5	2001.044	-2782.5	2001.044	-3372.5
2001.045	-4275	2001.045	-2902.5	2001.045	-365	2001.045	-2767.5	2001.045	-3292.5
2001.046	-4040	2001.046	-2845	2001.046	-355	2001.046	-2787.5	2001.046	-3190
2001.047	-3832.5	2001.047	-2707.5	2001.047	-347.5	2001.047	-2662.5	2001.047	-3090
2001.048	-3440	2001.048	-2662.5	2001.048	-362.5	2001.048	-2617.5	2001.048	-3012.5
2001.049	-3267.5	2001.049	-2485	2001.049	-312.5	2001.049	-2550	2001.049	-2797.5
2001.05	-3172.5	2001.05	-2410	2001.05	-335	2001.05	-2555	2001.05	-2742.5
2001.051	-3005	2001.051	-2297.5	2001.051	-270	2001.051	-2465	2001.051	-2620
2001.052	-3100	2001.052	-2265	2001.052	-317.5	2001.052	-2472.5	2001.052	-2612.5
2001.053	-3080	2001.053	-2262.5	2001.053	-300	2001.053	-2472.5	2001.053	-2502.5
2001.054	-3095	2001.054	-2197.5	2001.054	-257.5	2001.054	-2447.5	2001.054	-2445
2001.055	-3212.5	2001.055	-2147.5	2001.055	-267.5	2001.055	-2375	2001.055	-2507.5
2001.056	-3410	2001.056	-2240	2001.056	-292.5	2001.056	-2487.5	2001.056	-2575
2001.057	-3420	2001.057	-2322.5	2001.057	-302.5	2001.057	-2437.5	2001.057	-2632.5
2001.058	-3777.5	2001.058	-2450	2001.058	-292.5	2001.058	-2470	2001.058	-2762.5
2001.059	-4030	2001.059	-2550	2001.059	-292.5	2001.059	-2550	2001.059	-2892.5
2001.06	-4055	2001.06	-2587.5	2001.06	-340	2001.06	-2500	2001.06	-2912.5
2001.061	-4217.5	2001.061	-2645	2001.061	-325	2001.061	-2532.5	2001.061	-2975
2001.062	-4140	2001.062	-2732.5	2001.062	-282.5	2001.062	-2552.5	2001.062	-2997.5
2001.063	-4147.5	2001.063	-2742.5	2001.063	-305	2001.063	-2477.5	2001.063	-3097.5
2001.064	-4237.5	2001.064	-2727.5	2001.064	-295	2001.064	-2535	2001.064	-3062.5
2001.065	-4142.5	2001.065	-2642.5	2001.065	-280	2001.065	-2450	2001.065	-2982.5
2001.066	-3690	2001.066	-2545	2001.066	-270	2001.066	-2410	2001.066	-2890
2001.067	-3625	2001.067	-2485	2001.067	-255	2001.067	-2345	2001.067	-2815
2001.068	-3320	2001.068	-2425	2001.068	-272.5	2001.068	-2350	2001.068	-2650
2001.069	-3322.5	2001.069	-2262.5	2001.069	-230	2001.069	-2262.5	2001.069	-2527.5
2001.07	-3055	2001.07	-2212.5	2001.07	-252.5	2001.07	-2300	2001.07	-2477.5
2001.071	-2820	2001.071	-2082.5	2001.071	-237.5	2001.071	-2222.5	2001.071	-2272.5
2001.072	-2735	2001.072	-2065	2001.072	-240	2001.072	-2212.5	2001.072	-2260
2001.073	-2770	2001.073	-2010	2001.073	-235	2001.073	-2217.5	2001.073	-2287.5
2001.074	-2780	2001.074	-2012.5	2001.074	-260	2001.074	-2260	2001.074	-2325
2001.075	-2830	2001.075	-1947.5	2001.075	-195	2001.075	-2197.5	2001.075	-2275
2001.076	-3085	2001.076	-2020	2001.076	-220	2001.076	-2267.5	2001.076	-2355
2001.077	-3190	2001.077	-2017.5	2001.077	-220	2001.077	-2245	2001.077	-2445
2001.078	-3435	2001.078	-2205	2001.078	-222.5	2001.078	-2240	2001.078	-2500
2001.079	-3572.5	2001.079	-2277.5	2001.079	-237.5	2001.079	-2262.5	2001.079	-2587.5
2001.08	-3780	2001.08	-2365	2001.08	-265	2001.08	-2317.5	2001.08	-2670
2001.081	-3880	2001.081	-2457.5	2001.081	-290	2001.081	-2380	2001.081	-2770
2001.082	-3805	2001.082	-2477.5	2001.082	-257.5	2001.082	-2325	2001.082	-2750
2001.083	-3865	2001.083	-2497.5	2001.083	-240	2001.083	-2335	2001.083	-2785
2001.084	-3892.5	2001.084	-2500	2001.084	-280	2001.084	-2342.5	2001.084	-2792.5
2001.085	-3910	2001.085	-2447.5	2001.085	-237.5	2001.085	-2312.5	2001.085	-2720
2001.086	-3492.5	2001.086	-2337.5	2001.086	-267.5	2001.086	-2150	2001.086	-2647.5
2001.087	-3322.5	2001.087	-2232.5	2001.087	-182.5	2001.087	-2155	2001.087	-2522.5
2001.088	-3052.5	2001.088	-2075	2001.088	-225	2001.088	-2122.5	2001.088	-2365
2001.089	-2795	2001.089	-1925	2001.089	-180	2001.089	-1982.5	2001.089	-2245
2001.09	-2662.5	2001.09	-1950	2001.09	-197.5	2001.09	-1980	2001.09	-2092.5
2001.091	-2600	2001.091	-1847.5	2001.091	-205	2001.091	-1955	2001.091	-2060
2001.092	-2515	2001.092	-1800	2001.092	-237.5	2001.092	-2025	2001.092	-2040
2001.093	-2510	2001.093	-1735	2001.093	-242.5	2001.093	-2012.5	2001.093	-2020
2001.094	-2467.5	2001.094	-1745	2001.094	-230	2001.094	-1972.5	2001.094	-1965
2001.095	-2565	2001.095	-1797.5	2001.095	-215	2001.095	-2015	2001.095	-1967.5
2001.096	-2705	2001.096	-1780	2001.096	-272.5	2001.096	-2045	2001.096	-2057.5
2001.097	-2792.5	2001.097	-1917.5	2001.097	-245	2001.097	-2070	2001.097	-2112.5
2001.098	-3027.5	2001.098	-1987.5	2001.098	-285	2001.098	-2017.5	2001.098	-2265
2001.099	-3175	2001.099	-2020	2001.099	-230	2001.099	-2047.5	2001.099	-2327.5
2001.1	-3317.5	2001.1	-2100	2001.1	-252.5	2001.1	-2062.5	2001.1	-2370
2001.101	-3425	2001.101	-2227.5	2001.101	-220	2001.101	-2087.5	2001.101	-2530
2001.102	-3592.5	2001.102	-2210	2001.102	-247.5	2001.102	-2055	2001.102	-2575
2001.103	-3612.5	2001.103	-2277.5	2001.103	-220	2001.103	-2050	2001.103	-2555
2001.104	-3490	2001.104	-2302.5	2001.104	-255	2001.104	-2007.5	2001.104	-2575
2001.105	-3482.5	2001.105	-2202.5	2001.105	-240	2001.105	-1992.5	2001.105	-2467.5
2001.106	-3052.5	2001.106	-2087.5	2001.106	-207.5	2001.106	-1967.5	2001.106	-2370
2001.107	-2962.5	2001.107	-2020	2001.107	-215	2001.107	-1890	2001.107	-2287.5
2001.108	-2672.5	2001.108	-1930	2001.108	-182.5	2001.108	-1757.5	2001.108	-2172.5
2001.109	-2382.5	2001.109	-1682.5	2001.109	-207.5	2001.109	-1765	2001.109	-1980
2001.11	-2237.5	2001.11	-1625	2001.11	-182.5	2001.11	-1720	2001.11	-1907.5
2001.111	-2092.5	2001.111	-1545	2001.111	-167.5	2001.111	-1617.5	2001.111	-1777.5
2001.112	-2022.5	2001.112	-1520	2001.112	-155	2001.112	-1615	2001.112	-1697.5
2001.113	-2045	2001.113	-1452.5	2001.113	-185	2001.113	-1662.5	2001.113	-1672.5
2001.114	-2065	2001.114	-1440	2001.114	-237.5	2001.114	-1630	2001.114	-1620
2001.115	-2192.5	2001.115	-1427.5	2001.115	-210	2001.115	-1635	2001.115	-1632.5
2001.116	-2367.5	2001.116	-1487.5	2001.116	-242.5	2001.116	-1680	2001.116	-1732.5
2001.117	-2552.5	2001.117	-1527.5	2001.117	-225	2001.117	-1747.5	2001.117	-1860
2001.118	-2845	2001.118	-1807.5	2001.118	-267.5	2001.118	-1805	2001.118	-2035
2001.119	-2797.5	2001.119	-1810	2001.119	-232.5	2001.119	-1745	2001.119	-2092.5
2001.12	-2905	2001.12	-1850	2001.12	-222.5	2001.12	-1710	2001.12	-2127.5
2001.121	-3225	2001.121	-1912.5	2001.121	-290	2001.121	-1760	2001.121	-2240
2001.122	-2947.5	2001.122	-1977.5	2001.122	-305	2001.122	-1785	2001.122	-2310
2001.123	-3107.5	2001.123	-2017.5	2001.123	-255	2001.123	-1797.5	2001.123	-2285
2001.124	-3097.5	2001.124	-1975	2001.124	-292.5	2001.124	-1765	2001.124	-2295
2001.125	-2987.5	2001.125	-2017.5	2001.125	-292.5	2001.125	-1712.5	2001.125	-2322.5
2001.126	-2762.5	2001.126	-1920	2001.126	-290	2001.126	-1725	2001.126	-2262.5
2001.127	-2675	2001.127	-1835	2001.127	-287.5	2001.127	-1635	2001.127	-2130
2001.128	-2327.5	2001.128	-1700	2001.128	-260	2001.128	-1530	2001.128	-2010
2001.129	-2157.5	2001.129	-1617.5	2001.129	-270	2001.129	-1570	2001.129	-1857.5
2001.13	-2047.5	2001.13	-1507.5	2001.13	-295	2001.13	-1557.5	2001.13	-1777.5
2001.131	-1945	2001.131	-1395	2001.131	-272.5	2001.131	-1477.5	2001.131	-1642.5
2001.132	-1980	2001.132	-1350	2001.132	-277.5	2001.132	-1507.5	2001.132	-1687.5
2001.133	-1787.5	2001.133	-1312.5	2001.133	-265	2001.133	-1427.5	2001.133	-1617.5
2001.134	-1787.5	2001.134	-1247.5	2001.134	-275	2001.134	-1475	2001.134	-1562.5
2001.135	-1835	2001.135	-1287.5	2001.135	-292.5	2001.135	-1465	2001.135	-1630
2001.136	-1980	2001.136	-1397.5	2001.136	-300	2001.136	-1505	2001.136	-1707.5
2001.137	-2250	2001.137	-1382.5	2001.137	-290	2001.137	-1460	2001.137	-1782.5
2001.138	-2525	2001.138	-1537.5	2001.138	-330	2001.138	-1467.5	2001.138	-1905
2001.139	-2675	2001.139	-1610	2001.139	-335	2001.139	-1525	2001.139	-1990
2001.14	-2807.5	2001.14	-1687.5	2001.14	-325	2001.14	-1572.5	2001.14	-2095
2001.141	-2910	2001.141	-1780	2001.141	-307.5	2001.141	-1547.5	2001.141	-2147.5
2001.142	-2850	2001.142	-1797.5	2001.142	-300	2001.142	-1592.5	2001.142	-2087.5
2001.143	-2870	2001.143	-1805	2001.143	-275	2001.143	-1560	2001.143	-2122.5
2001.144	-2922.5	2001.144	-1895	2001.144	-282.5	2001.144	-1502.5	2001.144	-2167.5
2001.145	-2817.5	2001.145	-1802.5	2001.145	-290	2001.145	-1492.5	2001.145	-2017.5
2001.146	-2615	2001.146	-1750	2001.146	-392.5	2001.146	-1527.5	2001.146	-2027.5
2001.147	-2555	2001.147	-1935	2001.147	-512.5	2001.147	-1660	2001.147	-2120
2001.148	-2430	2001.148	-1880	2001.148	-577.5	2001.148	-1872.5	2001.148	-2187.5
2001.149	-2310	2001.149	-1857.5	2001.149	-602.5	2001.149	-1870	2001.149	-2212.5
2001.15	-2370	2001.15	-2190	2001.15	-750	2001.15	-2287.5	2001.15	-2412.5
2001.151	-2597.5	2001.151	-2395	2001.151	-935	2001.151	-2472.5	2001.151	-2545
2001.152	-2645	2001.152	-2435	2001.152	-920	2001.152	-2585	2001.152	-2682.5
2001.153	-2562.5	2001.153	-2145	2001.153	-727.5	2001.153	-2210	2001.153	-2367.5
2001.154	-2140	2001.154	-1600	2001.154	-440	2001.154	-1707.5	2001.154	-1890
2001.155	-1927.5	2001.155	-1195	2001.155	-230	2001.155	-1277.5	2001.155	-1495
2001.156	-1752.5	2001.156	-967.5	2001.156	-35	2001.156	-937.5	2001.156	-1212.5
2001.157	-1705	2001.157	-595	2001.157	172.5	2001.157	-580	2001.157	-932.5
2001.158	-1517.5	2001.158	-342.5	2001.158	350	2001.158	-175	2001.158	-645
2001.159	-1665	2001.159	-417.5	2001.159	237.5	2001.159	-250	2001.159	-715
2001.16	-1877.5	2001.16	-862.5	2001.16	62.5	2001.16	-575	2001.16	-1115
2001.161	-2017.5	2001.161	-860	2001.161	47.5	2001.161	-552.5	2001.161	-1097.5
2001.162	-2302.5	2001.162	-1397.5	2001.162	-237.5	2001.162	-1067.5	2001.162	-1665
2001.163	-2975	2001.163	-2525	2001.163	-910	2001.163	-2067.5	2001.163	-2700
2001.164	-3605	2001.164	-2992.5	2001.164	-995	2001.164	-2607.5	2001.164	-3152.5
2001.165	-2692.5	2001.165	-1792.5	2001.165	-255	2001.165	-1382.5	2001.165	-2060
2001.166	-2370	2001.166	-1745	2001.166	-375	2001.166	-1372.5	2001.166	-1970
2001.167	-2187.5	2001.167	-1720	2001.167	-402.5	2001.167	-1387.5	2001.167	-2002.5
2001.168	-1955	2001.168	-1647.5	2001.168	-455	2001.168	-1532.5	2001.168	-1960
2001.169	-1707.5	2001.169	-1447.5	2001.169	-382.5	2001.169	-1340	2001.169	-1722.5
2001.17	-1985	2001.17	-1715	2001.17	-590	2001.17	-1667.5	2001.17	-1985
2001.171	-2000	2001.171	-1735	2001.171	-610	2001.171	-1752.5	2001.171	-1945
2001.172	-1892.5	2001.172	-1765	2001.172	-630	2001.172	-1800	2001.172	-1927.5
2001.173	-2137.5	2001.173	-2012.5	2001.173	-827.5	2001.173	-2127.5	2001.173	-2165
2001.174	-2765	2001.174	-2635	2001.174	-1222.5	2001.174	-2782.5	2001.174	-2785
2001.175	-3197.5	2001.175	-2985	2001.175	-1295	2001.175	-3095	2001.175	-3035
2001.176	-3767.5	2001.176	-3302.5	2001.176	-1420	2001.176	-3375	2001.176	-3440
2001.177	-4092.5	2001.177	-3480	2001.177	-1435	2001.177	-3602.5	2001.177	-3607.5
2001.178	-4352.5	2001.178	-3525	2001.178	-1375	2001.178	-3570	2001.178	-3765
2001.179	-4527.5	2001.179	-3672.5	2001.179	-1340	2001.179	-3580	2001.179	-3847.5
2001.18	-4622.5	2001.18	-3705	2001.18	-1295	2001.18	-3510	2001.18	-3902.5
2001.181	-4752.5	2001.181	-3677.5	2001.181	-1275	2001.181	-3447.5	2001.181	-3997.5
2001.182	-4712.5	2001.182	-3667.5	2001.182	-1207.5	2001.182	-3435	2001.182	-4002.5
2001.183	-4542.5	2001.183	-3615	2001.183	-1130	2001.183	-3300	2001.183	-3912.5
2001.184	-4447.5	2001.184	-3622.5	2001.184	-1082.5	2001.184	-3222.5	2001.184	-3902.5
2001.185	-4365	2001.185	-3402.5	2001.185	-1085	2001.185	-3160	2001.185	-3822.5
2001.186	-3945	2001.186	-3275	2001.186	-1007.5	2001.186	-2997.5	2001.186	-3570
2001.187	-3702.5	2001.187	-3022.5	2001.187	-935	2001.187	-2852.5	2001.187	-3360
2001.188	-3362.5	2001.188	-2930	2001.188	-920	2001.188	-2832.5	2001.188	-3195
2001.189	-3270	2001.189	-2720	2001.189	-875	2001.189	-2657.5	2001.189	-2942.5
2001.19	-3027.5	2001.19	-2612.5	2001.19	-827.5	2001.19	-2565	2001.19	-2867.5
2001.191	-2747.5	2001.191	-2462.5	2001.191	-790	2001.191	-2482.5	2001.191	-2597.5
2001.192	-2615	2001.192	-2425	2001.192	-775	2001.192	-2410	2001.192	-2587.5
2001.193	-2595	2001.193	-2327.5	2001.193	-785	2001.193	-2335	2001.193	-2510
2001.194	-2600	2001.194	-2175	2001.194	-717.5	2001.194	-2322.5	2001.194	-2430
2001.195	-2592.5	2001.195	-2130	2001.195	-680	2001.195	-2262.5	2001.195	-2355
2001.196	-2702.5	2001.196	-2132.5	2001.196	-595	2001.196	-2145	2001.196	-2365
2001.197	-2795	2001.197	-2017.5	2001.197	-567.5	2001.197	-2125	2001.197	-2380
2001.198	-3017.5	2001.198	-2147.5	2001.198	-557.5	2001.198	-2135	2001.198	-2440
2001.199	-3140	2001.199	-2252.5	2001.199	-555	2001.199	-2062.5	2001.199	-2545
2001.2	-3252.5	2001.2	-2355	2001.2	-520	2001.2	-2080	2001.2	-2645
2001.201	-3342.5	2001.201	-2380	2001.201	-550	2001.201	-2165	2001.201	-2737.5
2001.202	-3315	2001.202	-2415	2001.202	-520	2001.202	-2112.5	2001.202	-2715
2001.203	-3162.5	2001.203	-2340	2001.203	-492.5	2001.203	-2030	2001.203	-2607.5
2001.204	-3225	2001.204	-2352.5	2001.204	-440	2001.204	-1965	2001.204	-2635
2001.205	-3010	2001.205	-2345	2001.205	-422.5	2001.205	-1945	2001.205	-2540
2001.206	-2717.5	2001.206	-2225	2001.206	-407.5	2001.206	-1885	2001.206	-2445
2001.207	-2592.5	2001.207	-2172.5	2001.207	-437.5	2001.207	-1862.5	2001.207	-2357.5
2001.208	-2337.5	2001.208	-2105	2001.208	-455	2001.208	-1870	2001.208	-2235
2001.209	-2302.5	2001.209	-2117.5	2001.209	-482.5	2001.209	-1912.5	2001.209	-2207.5
2001.21	-2582.5	2001.21	-2537.5	2001.21	-835	2001.21	-2450	2001.21	-2645
2001.211	-2987.5	2001.211	-3282.5	2001.211	-1302.5	2001.211	-3252.5	2001.211	-3322.5
2001.212	-2985	2001.212	-3087.5	2001.212	-1202.5	2001.212	-3267.5	2001.212	-3190
2001.213	-1272.5	2001.213	-1235	2001.213	-267.5	2001.213	-1320	2001.213	-992.5
2001.214	2172.5	2001.214	2390	2001.214	1680	2001.214	2895	2001.214	3632.5
2001.215	8405	2001.215	8570	2001.215	4752.5	2001.215	10142.5	2001.215	11202.5
2001.216	17425	2001.216	17580	2001.216	9197.5	2001.216	20097.5	2001.216	21530
2001.217	26450	2001.217	26577.5	2001.217	13837.5	2001.217	30247.5	2001.217	31307.5
2001.218	33197.5	2001.218	35152.5	2001.218	18927.5	2001.218	39255	2001.218	38857.5
2001.219	38250	2001.219	44732.5	2001.219	24595	2001.219	49090	2001.219	44907.5
2001.22	43020	2001.22	53715	2001.22	26842.5	2001.22	57782.5	2001.22	49062.5
2001.221	48280	2001.221	59655	2001.221	23900	2001.221	60065	2001.221	52510
2001.222	54072.5	2001.222	63340	2001.222	21890	2001.222	49877.5	2001.222	52485
2001.223	52687.5	2001.223	53977.5	2001.223	5747.5	2001.223	-17602.5	2001.223	10777.5
2001.224	21015	2001.224	-19255	2001.224	-11247.5	2001.224	-11977.5	2001.224	-9495
2001.225	1207.5	2001.225	-10167.5	2001.225	-6242.5	2001.225	-9230	2001.225	-6130
2001.226	3340	2001.226	-4685	2001.226	-3400	2001.226	-5830	2001.226	-3037.5
2001.227	6645	2001.227	-792.5	2001.227	-1215	2001.227	-1732.5	2001.227	837.5
2001.228	9030	2001.228	1562.5	2001.228	-242.5	2001.228	652.5	2001.228	3365
2001.229	10807.5	2001.229	2437.5	2001.229	-187.5	2001.229	1442.5	2001.229	4572.5
2001.23	12180	2001.23	3387.5	2001.23	-97.5	2001.23	1922.5	2001.23	5547.5
2001.231	14230	2001.231	4797.5	2001.231	297.5	2001.231	2905	2001.231	6960
2001.232	16295	2001.232	6157.5	2001.232	575	2001.232	3757.5	2001.232	8345
2001.233	18667.5	2001.233	7835	2001.233	990	2001.233	4832.5	2001.233	10000
2001.234	20922.5	2001.234	9632.5	2001.234	1425	2001.234	5942.5	2001.234	11707.5
2001.235	22710	2001.235	11510	2001.235	1912.5	2001.235	7042.5	2001.235	13350
2001.236	24097.5	2001.236	13395	2001.236	2607.5	2001.236	8577.5	2001.236	15062.5
2001.237	25132.5	2001.237	15320	2001.237	3397.5	2001.237	10302.5	2001.237	16497.5
2001.238	25500	2001.238	16797.5	2001.238	4230	2001.238	11975	2001.238	17760
2001.239	25357.5	2001.239	17950	2001.239	5055	2001.239	13542.5	2001.239	18555
2001.24	25170	2001.24	18627.5	2001.24	5692.5	2001.24	14890	2001.24	18975
2001.241	24575	2001.241	19002.5	2001.241	6285	2001.241	15925	2001.241	19217.5
2001.242	24087.5	2001.242	18972.5	2001.242	6640	2001.242	16612.5	2001.242	19200
2001.243	23450	2001.243	18822.5	2001.243	6835	2001.243	17022.5	2001.243	19170
2001.244	22610	2001.244	18550	2001.244	6905	2001.244	17202.5	2001.244	18772.5
2001.245	21995	2001.245	18027.5	2001.245	6847.5	2001.245	17232.5	2001.245	18415
2001.246	21557.5	2001.246	17555	2001.246	6677.5	2001.246	17005	2001.246	18005
2001.247	20887.5	2001.247	17080	2001.247	6462.5	2001.247	16665	2001.247	17497.5
2001.248	20382.5	2001.248	16530	2001.248	6180	2001.248	16205	2001.248	17075
2001.249	19470	2001.249	15962.5	2001.249	5920	2001.249	15752.5	2001.249	16635
2001.25	18922.5	2001.25	15412.5	2001.25	5660	2001.25	15275	2001.25	16097.5
2001.251	18247.5	2001.251	14892.5	2001.251	5395	2001.251	14922.5	2001.251	15647.5
2001.252	17545	2001.252	14270	2001.252	5117.5	2001.252	14472.5	2001.252	15095
2001.253	16815	2001.253	13705	2001.253	4807.5	2001.253	13945	2001.253	14482.5
2001.254	16007.5	2001.254	13097.5	2001.254	4487.5	2001.254	13345	2001.254	13875
2001.255	15270	2001.255	12502.5	2001.255	4215	2001.255	12777.5	2001.255	13297.5
2001.256	14340	2001.256	11747.5	2001.256	3895	2001.256	12172.5	2001.256	12602.5
2001.257	13470	2001.257	11095	2001.257	3645	2001.257	11587.5	2001.257	11940
2001.258	12737.5	2001.258	10540	2001.258	3372.5	2001.258	11100	2001.258	11330
2001.259	11815	2001.259	9862.5	2001.259	3110	2001.259	10502.5	2001.259	10657.5
2001.26	11157.5	2001.26	9292.5	2001.26	2827.5	2001.26	10062.5	2001.26	10075
2001.261	10252.5	2001.261	8725	2001.261	2587.5	2001.261	9597.5	2001.261	9507.5
2001.262	9735	2001.262	8137.5	2001.262	2342.5	2001.262	9040	2001.262	8997.5
2001.263	9235	2001.263	7767.5	2001.263	2162.5	2001.263	8612.5	2001.263	8592.5
2001.264	8715	2001.264	7260	2001.264	1962.5	2001.264	8192.5	2001.264	8230
2001.265	8457.5	2001.265	6932.5	2001.265	1737.5	2001.265	7837.5	2001.265	7827.5
2001.266	8220	2001.266	6550	2001.266	1625	2001.266	7635	2001.266	7620
2001.267	7992.5	2001.267	6337.5	2001.267	1432.5	2001.267	7275	2001.267	7330
2001.268	7902.5	2001.268	6122.5	2001.268	1315	2001.268	7045	2001.268	7152.5
2001.269	7687.5	2001.269	5842.5	2001.269	1162.5	2001.269	6750	2001.269	7010
2001.27	7532.5	2001.27	5685	2001.27	1035	2001.27	6537.5	2001.27	6805
2001.271	7305	2001.271	5510	2001.271	925	2001.271	6357.5	2001.271	6677.5
2001.272	7047.5	2001.272	5322.5	2001.272	832.5	2001.272	6147.5	2001.272	6452.5
2001.273	6862.5	2001.273	5147.5	2001.273	760	2001.273	5932.5	2001.273	6250
2001.274	6595	2001.274	4935	2001.274	702.5	2001.274	5707.5	2001.274	6062.5
2001.275	6227.5	2001.275	4710	2001.275	567.5	2001.275	5567.5	2001.275	5822.5
2001.276	5672.5	2001.276	4370	2001.276	495	2001.276	5285	2001.276	5597.5
2001.277	5242.5	2001.277	4145	2001.277	387.5	2001.277	5127.5	2001.277	5262.5
2001.278	4642.5	2001.278	3792.5	2001.278	292.5	2001.278	4792.5	2001.278	4990
2001.279	4307.5	2001.279	3560	2001.279	202.5	2001.279	4670	2001.279	4670
2001.28	3890	2001.28	3200	2001.28	142.5	2001.28	4417.5	2001.28	4372.5
2001.281	3417.5	2001.281	2985	2001.281	72.5	2001.281	4217.5	2001.281	4077.5
2001.282	3247.5	2001.282	2725	2001.282	-30	2001.282	4020	2001.282	3787.5
2001.283	2932.5	2001.283	2400	2001.283	-65	2001.283	3805	2001.283	3585
2001.284	2867.5	2001.284	2260	2001.284	-122.5	2001.284	3647.5	2001.284	3435
2001.285	2777.5	2001.285	2120	2001.285	-225	2001.285	3562.5	2001.285	3252.5
2001.286	2742.5	2001.286	1957.5	2001.286	-297.5	2001.286	3370	2001.286	3157.5
2001.287	2792.5	2001.287	1870	2001.287	-327.5	2001.287	3250	2001.287	3072.5
2001.288	2640	2001.288	1747.5	2001.288	-395	2001.288	3150	2001.288	2960
2001.289	2505	2001.289	1637.5	2001.289	-497.5	2001.289	2967.5	2001.289	2820
2001.29	2482.5	2001.29	1532.5	2001.29	-537.5	2001.29	2805	2001.29	2800
2001.291	2450	2001.291	1525	2001.291	-580	2001.291	2715	2001.291	2685
2001.292	2220	2001.292	1380	2001.292	-645	2001.292	2520	2001.292	2570
2001.293	2202.5	2001.293	1205	2001.293	-710	2001.293	2237.5	2001.293	2475
2001.294	1940	2001.294	1095	2001.294	-792.5	2001.294	2117.5	2001.294	2167.5
2001.295	1670	2001.295	872.5	2001.295	-840	2001.295	1887.5	2001.295	2032.5
2001.296	1127.5	2001.296	622.5	2001.296	-920	2001.296	1627.5	2001.296	1742.5
2001.297	657.5	2001.297	395	2001.297	-987.5	2001.297	1490	2001.297	1495
2001.298	182.5	2001.298	142.5	2001.298	-1037.5	2001.298	1252.5	2001.298	1170
2001.299	-105	2001.299	-112.5	2001.299	-1130	2001.299	975	2001.299	837.5
2001.3	-427.5	2001.3	-432.5	2001.3	-1205	2001.3	737.5	2001.3	540
2001.301	-822.5	2001.301	-700	2001.301	-1255	2001.301	605	2001.301	165
2001.302	-1120	2001.302	-900	2001.302	-1332.5	2001.302	385	2001.302	-62.5
2001.303	-1185	2001.303	-1157.5	2001.303	-1382.5	2001.303	225	2001.303	-217.5
2001.304	-1385	2001.304	-1290	2001.304	-1422.5	2001.304	-12.5	2001.304	-402.5
2001.305	-1567.5	2001.305	-1365	2001.305	-1510	2001.305	-195	2001.305	-600
2001.306	-1492.5	2001.306	-1455	2001.306	-1552.5	2001.306	-342.5	2001.306	-595
2001.307	-1482.5	2001.307	-1505	2001.307	-1592.5	2001.307	-460	2001.307	-777.5
2001.308	-1380	2001.308	-1600	2001.308	-1612.5	2001.308	-620	2001.308	-797.5
2001.309	-1420	2001.309	-1637.5	2001.309	-1650	2001.309	-745	2001.309	-802.5
2001.31	-1432.5	2001.31	-1707.5	2001.31	-1710	2001.31	-862.5	2001.31	-977.5
2001.311	-1365	2001.311	-1747.5	2001.311	-1722.5	2001.311	-1015	2001.311	-1010
2001.312	-1607.5	2001.312	-1820	2001.312	-1732.5	2001.312	-1135	2001.312	-1170
2001.313	-1770	2001.313	-1965	2001.313	-1815	2001.313	-1292.5	2001.313	-1255
2001.314	-1967.5	2001.314	-2105	2001.314	-1850	2001.314	-1455	2001.314	-1382.5
2001.315	-2207.5	2001.315	-2202.5	2001.315	-1917.5	2001.315	-1660	2001.315	-1575
2001.316	-2637.5	2001.316	-2430	2001.316	-1937.5	2001.316	-1842.5	2001.316	-1825
2001.317	-2857.5	2001.317	-2540	2001.317	-1987.5	2001.317	-1960	2001.317	-2017.5
2001.318	-3287.5	2001.318	-2805	2001.318	-2015	2001.318	-2117.5	2001.318	-2272.5
2001.319	-3662.5	2001.319	-2925	2001.319	-2017.5	2001.319	-2275	2001.319	-2490
2001.32	-3942.5	2001.32	-3132.5	2001.32	-2092.5	2001.32	-2382.5	2001.32	-2677.5
2001.321	-4152.5	2001.321	-3237.5	2001.321	-2107.5	2001.321	-2485	2001.321	-2882.5
2001.322	-4302.5	2001.322	-3437.5	2001.322	-2130	2001.322	-2677.5	2001.322	-3087.5
2001.323	-4245	2001.323	-3597.5	2001.323	-2167.5	2001.323	-2737.5	2001.323	-3230
2001.324	-4445	2001.324	-3685	2001.324	-2135	2001.324	-2830	2001.324	-3312.5
2001.325	-4322.5	2001.325	-3735	2001.325	-2165	2001.325	-2825	2001.325	-3357.5
2001.326	-4112.5	2001.326	-3687.5	2001.326	-2170	2001.326	-2927.5	2001.326	-3307.5
2001.327	-4195	2001.327	-3747.5	2001.327	-2215	2001.327	-2972.5	2001.327	-3287.5
2001.328	-3970	2001.328	-3657.5	2001.328	-2200	2001.328	-2965	2001.328	-3272.5
2001.329	-3822.5	2001.329	-3622.5	2001.329	-2230	2001.329	-3112.5	2001.329	-3235
2001.33	-3827.5	2001.33	-3660	2001.33	-2227.5	2001.33	-3102.5	2001.33	-3307.5
2001.331	-3755	2001.331	-3632.5	2001.331	-2225	2001.331	-3117.5	2001.331	-3245
2001.332	-3780	2001.332	-3542.5	2001.332	-2220	2001.332	-3150	2001.332	-3300
2001.333	-3672.5	2001.333	-3515	2001.333	-2217.5	2001.333	-3217.5	2001.333	-3237.5
2001.334	-3877.5	2001.334	-3590	2001.334	-2205	2001.334	-3295	2001.334	-3262.5
2001.335	-4080	2001.335	-3687.5	2001.335	-2205	2001.335	-3402.5	2001.335	-3337.5
2001.336	-4280	2001.336	-3700	2001.336	-2180	2001.336	-3450	2001.336	-3445
2001.337	-4487.5	2001.337	-3785	2001.337	-2190	2001.337	-3492.5	2001.337	-3527.5
2001.338	-4715	2001.338	-3880	2001.338	-2185	2001.338	-3650	2001.338	-3637.5
2001.339	-4962.5	2001.339	-4087.5	2001.339	-2202.5	2001.339	-3647.5	2001.339	-3842.5
2001.34	-5135	2001.34	-4170	2001.34	-2152.5	2001.34	-3740	2001.34	-3985
2001.341	-5302.5	2001.341	-4347.5	2001.341	-2152.5	2001.341	-3795	2001.341	-4140
2001.342	-5267.5	2001.342	-4317.5	2001.342	-2137.5	2001.342	-3782.5	2001.342	-4140
2001.343	-5272.5	2001.343	-4465	2001.343	-2072.5	2001.343	-3747.5	2001.343	-4107.5
2001.344	-5327.5	2001.344	-4435	2001.344	-2112.5	2001.344	-3825	2001.344	-4165
2001.345	-5202.5	2001.345	-4430	2001.345	-2065	2001.345	-3810	2001.345	-4157.5
2001.346	-4977.5	2001.346	-4385	2001.346	-2075	2001.346	-3797.5	2001.346	-4145
2001.347	-4847.5	2001.347	-4305	2001.347	-2032.5	2001.347	-3760	2001.347	-4020
2001.348	-4522.5	2001.348	-4200	2001.348	-2010	2001.348	-3710	2001.348	-4015
2001.349	-4470	2001.349	-4052.5	2001.349	-2027.5	2001.349	-3700	2001.349	-3840
2001.35	-4385	2001.35	-4055	2001.35	-2015	2001.35	-3745	2001.35	-3715
2001.351	-4212.5	2001.351	-3947.5	2001.351	-2002.5	2001.351	-3667.5	2001.351	-3650
2001.352	-4185	2001.352	-3857.5	2001.352	-1985	2001.352	-3702.5	2001.352	-3622.5
2001.353	-4137.5	2001.353	-3825	2001.353	-1952.5	2001.353	-3662.5	2001.353	-3540
2001.354	-4247.5	2001.354	-3847.5	2001.354	-1922.5	2001.354	-3755	2001.354	-3485
2001.355	-4297.5	2001.355	-3887.5	2001.355	-1935	2001.355	-3767.5	2001.355	-3615
2001.356	-4540	2001.356	-4022.5	2001.356	-1927.5	2001.356	-3737.5	2001.356	-3695
2001.357	-4810	2001.357	-4032.5	2001.357	-1892.5	2001.357	-3782.5	2001.357	-3765
2001.358	-4892.5	2001.358	-4125	2001.358	-1907.5	2001.358	-3757.5	2001.358	-3852.5
2001.359	-5115	2001.359	-4272.5	2001.359	-1875	2001.359	-3830	2001.359	-3975
2001.36	-5285	2001.36	-4255	2001.36	-1860	2001.36	-3875	2001.36	-4027.5
2001.361	-5370	2001.361	-4372.5	2001.361	-1830	2001.361	-3900	2001.361	-4182.5
2001.362	-5397.5	2001.362	-4435	2001.362	-1840	2001.362	-3912.5	2001.362	-4165
2001.363	-5267.5	2001.363	-4422.5	2001.363	-1800	2001.363	-3840	2001.363	-4140
2001.364	-5347.5	2001.364	-4455	2001.364	-1835	2001.364	-3857.5	2001.364	-4250
2001.365	-5157.5	2001.365	-4420	2001.365	-1770	2001.365	-3852.5	2001.365	-4117.5
2001.366	-4900	2001.366	-4277.5	2001.366	-1705	2001.366	-3730	2001.366	-4005
2001.367	-4632.5	2001.367	-4165	2001.367	-1727.5	2001.367	-3682.5	2001.367	-3905
2001.368	-4265	2001.368	-4067.5	2001.368	-1710	2001.368	-3647.5	2001.368	-3800
2001.369	-4205	2001.369	-4017.5	2001.369	-1687.5	2001.369	-3637.5	2001.369	-3715
2001.37	-3952.5	2001.37	-3890	2001.37	-1682.5	2001.37	-3587.5	2001.37	-3642.5
2001.371	-3850	2001.371	-3800	2001.371	-1652.5	2001.371	-3527.5	2001.371	-3515
2001.372	-3822.5	2001.372	-3757.5	2001.372	-1637.5	2001.372	-3567.5	2001.372	-3485
2001.373	-3795	2001.373	-3697.5	2001.373	-1622.5	2001.373	-3525	2001.373	-3425
2001.374	-3890	2001.374	-3642.5	2001.374	-1600	2001.374	-3445	2001.374	-3380
2001.375	-4020	2001.375	-3670	2001.375	-1560	2001.375	-3445	2001.375	-3355
2001.376	-4237.5	2001.376	-3735	2001.376	-1592.5	2001.376	-3480	2001.376	-3450
2001.377	-4490	2001.377	-3822.5	2001.377	-1545	2001.377	-3540	2001.377	-3495
2001.378	-4685	2001.378	-3882.5	2001.378	-1547.5	2001.378	-3617.5	2001.378	-3642.5
2001.379	-4635	2001.379	-3912.5	2001.379	-1510	2001.379	-3565	2001.379	-3675
2001.38	-4770	2001.38	-3925	2001.38	-1497.5	2001.38	-3572.5	2001.38	-3745
2001.381	-5022.5	2001.381	-4100	2001.381	-1437.5	2001.381	-3560	2001.381	-3850
2001.382	-4887.5	2001.382	-4110	2001.382	-1445	2001.382	-3507.5	2001.382	-3800
2001.383	-4967.5	2001.383	-4100	2001.383	-1405	2001.383	-3472.5	2001.383	-3822.5
2001.384	-4862.5	2001.384	-4045	2001.384	-1362.5	2001.384	-3430	2001.384	-3847.5
2001.385	-4690	2001.385	-4037.5	2001.385	-1377.5	2001.385	-3405	2001.385	-3752.5
2001.386	-4535	2001.386	-3880	2001.386	-1370	2001.386	-3387.5	2001.386	-3695
2001.387	-4395	2001.387	-3885	2001.387	-1377.5	2001.387	-3397.5	2001.387	-3602.5
2001.388	-4045	2001.388	-3745	2001.388	-1397.5	2001.388	-3355	2001.388	-3455
2001.389	-3930	2001.389	-3665	2001.389	-1380	2001.389	-3335	2001.389	-3477.5
2001.39	-3747.5	2001.39	-3650	2001.39	-1422.5	2001.39	-3312.5	2001.39	-3380
2001.391	-3567.5	2001.391	-3492.5	2001.391	-1360	2001.391	-3265	2001.391	-3280
2001.392	-3645	2001.392	-3430	2001.392	-1340	2001.392	-3260	2001.392	-3165
2001.393	-3477.5	2001.393	-3405	2001.393	-1352.5	2001.393	-3245	2001.393	-3060
2001.394	-3480	2001.394	-3380	2001.394	-1312.5	2001.394	-3200	2001.394	-3092.5
2001.395	-3572.5	2001.395	-3362.5	2001.395	-1322.5	2001.395	-3157.5	2001.395	-3047.5
2001.396	-3930	2001.396	-3470	2001.396	-1280	2001.396	-3157.5	2001.396	-3212.5
2001.397	-4005	2001.397	-3502.5	2001.397	-1277.5	2001.397	-3210	2001.397	-3325
2001.398	-4210	2001.398	-3627.5	2001.398	-1285	2001.398	-3257.5	2001.398	-3292.5
2001.399	-4390	2001.399	-3645	2001.399	-1272.5	2001.399	-3260	2001.399	-3445
2001.4	-4622.5	2001.4	-3802.5	2001.4	-1242.5	2001.4	-3297.5	2001.4	-3577.5
2001.401	-4787.5	2001.401	-3845	2001.401	-1285	2001.401	-3255	2001.401	-3730
2001.402	-4625	2001.402	-3865	2001.402	-1215	2001.402	-3272.5	2001.402	-3672.5
2001.403	-4597.5	2001.403	-3912.5	2001.403	-1207.5	2001.403	-3257.5	2001.403	-3745
2001.404	-4675	2001.404	-3887.5	2001.404	-1215	2001.404	-3250	2001.404	-3752.5
2001.405	-4470	2001.405	-3805	2001.405	-1170	2001.405	-3250	2001.405	-3600
2001.406	-4162.5	2001.406	-3715	2001.406	-1190	2001.406	-3182.5	2001.406	-3517.5
2001.407	-3920	2001.407	-3625	2001.407	-1137.5	2001.407	-3135	2001.407	-3420
2001.408	-3687.5	2001.408	-3535	2001.408	-1117.5	2001.408	-3067.5	2001.408	-3282.5
2001.409	-3532.5	2001.409	-3447.5	2001.409	-1127.5	2001.409	-3065	2001.409	-3115
2001.41	-3225	2001.41	-3315	2001.41	-1117.5	2001.41	-3022.5	2001.41	-3107.5
2001.411	-3162.5	2001.411	-3162.5	2001.411	-1060	2001.411	-2970	2001.411	-2910
2001.412	-3135	2001.412	-3065	2001.412	-1052.5	2001.412	-3000	2001.412	-2922.5
2001.413	-3025	2001.413	-3022.5	2001.413	-1057.5	2001.413	-2925	2001.413	-2862.5
2001.414	-3050	2001.414	-2992.5	2001.414	-1020	2001.414	-2852.5	2001.414	-2837.5
2001.415	-3202.5	2001.415	-3055	2001.415	-1042.5	2001.415	-2960	2001.415	-2847.5
2001.416	-3392.5	2001.416	-3127.5	2001.416	-1057.5	2001.416	-2952.5	2001.416	-2935
2001.417	-3550	2001.417	-3167.5	2001.417	-1025	2001.417	-3005	2001.417	-3025
2001.418	-3887.5	2001.418	-3282.5	2001.418	-1035	2001.418	-3072.5	2001.418	-3150
2001.419	-3952.5	2001.419	-3382.5	2001.419	-1040	2001.419	-3062.5	2001.419	-3272.5
2001.42	-4132.5	2001.42	-3440	2001.42	-1037.5	2001.42	-3172.5	2001.42	-3372.5
2001.421	-4325	2001.421	-3515	2001.421	-1002.5	2001.421	-3170	2001.421	-3372.5
2001.422	-4312.5	2001.422	-3522.5	2001.422	-1005	2001.422	-3135	2001.422	-3427.5
2001.423	-4255	2001.423	-3517.5	2001.423	-990	2001.423	-3152.5	2001.423	-3500
2001.424	-4295	2001.424	-3482.5	2001.424	-975	2001.424	-3057.5	2001.424	-3437.5
2001.425	-4110	2001.425	-3510	2001.425	-1017.5	2001.425	-3057.5	2001.425	-3455
2001.426	-3862.5	2001.426	-3432.5	2001.426	-952.5	2001.426	-3037.5	2001.426	-3417.5
2001.427	-3635	2001.427	-3280	2001.427	-955	2001.427	-3075	2001.427	-3332.5
2001.428	-3430	2001.428	-3232.5	2001.428	-920	2001.428	-3042.5	2001.428	-3187.5
2001.429	-3170	2001.429	-3175	2001.429	-947.5	2001.429	-3010	2001.429	-3027.5
2001.43	-2927.5	2001.43	-2932.5	2001.43	-890	2001.43	-2870	2001.43	-2897.5
2001.431	-2725	2001.431	-2870	2001.431	-892.5	2001.431	-2882.5	2001.431	-2780
2001.432	-2730	2001.432	-2892.5	2001.432	-895	2001.432	-2832.5	2001.432	-2840
2001.433	-2845	2001.433	-2852.5	2001.433	-902.5	2001.433	-2907.5	2001.433	-2702.5
2001.434	-2850	2001.434	-2762.5	2001.434	-907.5	2001.434	-2845	2001.434	-2727.5
2001.435	-3067.5	2001.435	-2752.5	2001.435	-885	2001.435	-2892.5	2001.435	-2770
2001.436	-3187.5	2001.436	-2790	2001.436	-867.5	2001.436	-2947.5	2001.436	-2860
2001.437	-3375	2001.437	-2815	2001.437	-837.5	2001.437	-2882.5	2001.437	-2890
2001.438	-3487.5	2001.438	-2850	2001.438	-822.5	2001.438	-2845	2001.438	-2990
2001.439	-3767.5	2001.439	-2972.5	2001.439	-847.5	2001.439	-2935	2001.439	-3100
2001.44	-3917.5	2001.44	-2992.5	2001.44	-802.5	2001.44	-2912.5	2001.44	-3122.5
2001.441	-4122.5	2001.441	-3087.5	2001.441	-780	2001.441	-2992.5	2001.441	-3222.5
2001.442	-3970	2001.442	-3142.5	2001.442	-787.5	2001.442	-2975	2001.442	-3302.5
2001.443	-4132.5	2001.443	-3125	2001.443	-765	2001.443	-2957.5	2001.443	-3350
2001.444	-4105	2001.444	-3225	2001.444	-790	2001.444	-2985	2001.444	-3372.5
2001.445	-3857.5	2001.445	-3125	2001.445	-775	2001.445	-2937.5	2001.445	-3275
2001.446	-3625	2001.446	-3097.5	2001.446	-762.5	2001.446	-2915	2001.446	-3292.5
2001.447	-3455	2001.447	-2960	2001.447	-702.5	2001.447	-2860	2001.447	-3155
2001.448	-3265	2001.448	-2842.5	2001.448	-665	2001.448	-2770	2001.448	-3047.5
2001.449	-3032.5	2001.449	-2672.5	2001.449	-692.5	2001.449	-2755	2001.449	-2957.5
2001.45	-3010	2001.45	-2597.5	2001.45	-637.5	2001.45	-2622.5	2001.45	-2875
2001.451	-2810	2001.451	-2470	2001.451	-642.5	2001.451	-2625	2001.451	-2682.5
2001.452	-2777.5	2001.452	-2415	2001.452	-592.5	2001.452	-2670	2001.452	-2700
2001.453	-2812.5	2001.453	-2372.5	2001.453	-660	2001.453	-2692.5	2001.453	-2667.5
2001.454	-2840	2001.454	-2372.5	2001.454	-652.5	2001.454	-2612.5	2001.454	-2557.5
2001.455	-2997.5	2001.455	-2352.5	2001.455	-640	2001.455	-2642.5	2001.455	-2570
2001.456	-3277.5	2001.456	-2427.5	2001.456	-650	2001.456	-2640	2001.456	-2677.5
2001.457	-3492.5	2001.457	-2507.5	2001.457	-645	2001.457	-2550	2001.457	-2785
2001.458	-3675	2001.458	-2620	2001.458	-652.5	2001.458	-2675	2001.458	-2900
2001.459	-3940	2001.459	-2680	2001.459	-637.5	2001.459	-2652.5	2001.459	-2990
2001.46	-4057.5	2001.46	-2760	2001.46	-602.5	2001.46	-2715	2001.46	-3122.5
2001.461	-4222.5	2001.461	-2867.5	2001.461	-620	2001.461	-2762.5	2001.461	-3212.5
2001.462	-4297.5	2001.462	-2912.5	2001.462	-615	2001.462	-2780	2001.462	-3205
2001.463	-4245	2001.463	-2922.5	2001.463	-632.5	2001.463	-2732.5	2001.463	-3282.5
2001.464	-4122.5	2001.464	-2930	2001.464	-630	2001.464	-2720	2001.464	-3242.5
2001.465	-4085	2001.465	-2887.5	2001.465	-622.5	2001.465	-2627.5	2001.465	-3182.5
2001.466	-3785	2001.466	-2745	2001.466	-592.5	2001.466	-2630	2001.466	-3192.5
2001.467	-3655	2001.467	-2720	2001.467	-610	2001.467	-2567.5	2001.467	-3120
2001.468	-3387.5	2001.468	-2575	2001.468	-565	2001.468	-2555	2001.468	-2992.5
2001.469	-3357.5	2001.469	-2495	2001.469	-572.5	2001.469	-2465	2001.469	-2915
2001.47	-3242.5	2001.47	-2422.5	2001.47	-542.5	2001.47	-2395	2001.47	-2745
2001.471	-2977.5	2001.471	-2315	2001.471	-517.5	2001.471	-2402.5	2001.471	-2665
2001.472	-2975	2001.472	-2242.5	2001.472	-520	2001.472	-2387.5	2001.472	-2620
2001.473	-2792.5	2001.473	-2150	2001.473	-487.5	2001.473	-2325	2001.473	-2522.5
2001.474	-2937.5	2001.474	-2105	2001.474	-510	2001.474	-2342.5	2001.474	-2527.5
2001.475	-3157.5	2001.475	-2132.5	2001.475	-555	2001.475	-2325	2001.475	-2582.5
2001.476	-3267.5	2001.476	-2185	2001.476	-495	2001.476	-2375	2001.476	-2632.5
2001.477	-3357.5	2001.477	-2237.5	2001.477	-475	2001.477	-2385	2001.477	-2700
2001.478	-3617.5	2001.478	-2352.5	2001.478	-472.5	2001.478	-2365	2001.478	-2787.5
2001.479	-3800	2001.479	-2325	2001.479	-445	2001.479	-2282.5	2001.479	-2812.5
2001.48	-3945	2001.48	-2447.5	2001.48	-435	2001.48	-2342.5	2001.48	-2887.5
2001.481	-4045	2001.481	-2495	2001.481	-420	2001.481	-2415	2001.481	-2977.5
2001.482	-4117.5	2001.482	-2525	2001.482	-432.5	2001.482	-2365	2001.482	-3050
2001.483	-4167.5	2001.483	-2572.5	2001.483	-450	2001.483	-2422.5	2001.483	-3082.5
2001.484	-4140	2001.484	-2585	2001.484	-470	2001.484	-2327.5	2001.484	-3120
2001.485	-3900	2001.485	-2497.5	2001.485	-470	2001.485	-2297.5	2001.485	-3107.5
2001.486	-3777.5	2001.486	-2420	2001.486	-430	2001.486	-2307.5	2001.486	-2975
2001.487	-3570	2001.487	-2392.5	2001.487	-447.5	2001.487	-2320	2001.487	-2900
2001.488	-3210	2001.488	-2252.5	2001.488	-412.5	2001.488	-2182.5	2001.488	-2710
2001.489	-3077.5	2001.489	-2132.5	2001.489	-372.5	2001.489	-2085	2001.489	-2562.5
2001.49	-2852.5	2001.49	-2065	2001.49	-325	2001.49	-2070	2001.49	-2422.5
2001.491	-2737.5	2001.491	-1897.5	2001.491	-315	2001.491	-1995	2001.491	-2322.5
2001.492	-2735	2001.492	-1882.5	2001.492	-337.5	2001.492	-1995	2001.492	-2297.5
2001.493	-2580	2001.493	-1802.5	2001.493	-292.5	2001.493	-1887.5	2001.493	-2125
2001.494	-2645	2001.494	-1720	2001.494	-302.5	2001.494	-1897.5	2001.494	-2107.5
2001.495	-2785	2001.495	-1787.5	2001.495	-317.5	2001.495	-1937.5	2001.495	-2130
2001.496	-3010	2001.496	-1815	2001.496	-315	2001.496	-2022.5	2001.496	-2265
2001.497	-3120	2001.497	-1922.5	2001.497	-327.5	2001.497	-2005	2001.497	-2367.5
2001.498	-3380	2001.498	-2065	2001.498	-337.5	2001.498	-2070	2001.498	-2487.5
2001.499	-3542.5	2001.499	-2097.5	2001.499	-325	2001.499	-2055	2001.499	-2577.5
2001.5	-3695	2001.5	-2167.5	2001.5	-307.5	2001.5	-2037.5	2001.5	-2590
2001.501	-3837.5	2001.501	-2292.5	2001.501	-310	2001.501	-2057.5	2001.501	-2730
2001.502	-3975	2001.502	-2302.5	2001.502	-290	2001.502	-2130	2001.502	-2855
2001.503	-3855	2001.503	-2367.5	2001.503	-320	2001.503	-2095	2001.503	-2710
2001.504	-3930	2001.504	-2382.5	2001.504	-322.5	2001.504	-2112.5	2001.504	-2757.5
2001.505	-3602.5	2001.505	-2315	2001.505	-332.5	2001.505	-2062.5	2001.505	-2670
2001.506	-3307.5	2001.506	-2172.5	2001.506	-285	2001.506	-2030	2001.506	-2567.5
2001.507	-3310	2001.507	-2135	2001.507	-302.5	2001.507	-1987.5	2001.507	-2527.5
2001.508	-2932.5	2001.508	-2012.5	2001.508	-300	2001.508	-1952.5	2001.508	-2325
2001.509	-2817.5	2001.509	-1922.5	2001.509	-280	2001.509	-1947.5	2001.509	-2285
2001.51	-2677.5	2001.51	-1890	2001.51	-270	2001.51	-1875	2001.51	-2227.5
2001.511	-2410	2001.511	-1692.5	2001.511	-260	2001.511	-1755	2001.511	-2092.5
2001.512	-2402.5	2001.512	-1645	2001.512	-237.5	2001.512	-1785	2001.512	-1987.5
2001.513	-2302.5	2001.513	-1567.5	2001.513	-240	2001.513	-1800	2001.513	-1977.5
2001.514	-2365	2001.514	-1560	2001.514	-277.5	2001.514	-1765	2001.514	-1885
2001.515	-2505	2001.515	-1622.5	2001.515	-230	2001.515	-1802.5	2001.515	-1907.5
2001.516	-2762.5	2001.516	-1630	2001.516	-295	2001.516	-1900	2001.516	-2060
2001.517	-2952.5	2001.517	-1672.5	2001.517	-285	2001.517	-1862.5	2001.517	-2100
2001.518	-3255	2001.518	-1722.5	2001.518	-245	2001.518	-1867.5	2001.518	-2152.5
2001.519	-3280	2001.519	-1910	2001.519	-242.5	2001.519	-1892.5	2001.519	-2272.5
2001.52	-3485	2001.52	-1952.5	2001.52	-255	2001.52	-1867.5	2001.52	-2397.5
2001.521	-3617.5	2001.521	-2077.5	2001.521	-250	2001.521	-1932.5	2001.521	-2567.5
2001.522	-3535	2001.522	-2057.5	2001.522	-270	2001.522	-1940	2001.522	-2532.5
2001.523	-3420	2001.523	-2057.5	2001.523	-230	2001.523	-1955	2001.523	-2547.5
2001.524	-3550	2001.524	-2130	2001.524	-232.5	2001.524	-1875	2001.524	-2590
2001.525	-3380	2001.525	-2070	2001.525	-217.5	2001.525	-1882.5	2001.525	-2525
2001.526	-2980	2001.526	-1985	2001.526	-232.5	2001.526	-1760	2001.526	-2447.5
2001.527	-2922.5	2001.527	-1930	2001.527	-230	2001.527	-1802.5	2001.527	-2375
2001.528	-2597.5	2001.528	-1742.5	2001.528	-220	2001.528	-1780	2001.528	-2240
2001.529	-2565	2001.529	-1617.5	2001.529	-207.5	2001.529	-1727.5	2001.529	-2150
2001.53	-2407.5	2001.53	-1562.5	2001.53	-205	2001.53	-1692.5	2001.53	-1997.5
2001.531	-2260	2001.531	-1447.5	2001.531	-205	2001.531	-1672.5	2001.531	-1890
2001.532	-2147.5	2001.532	-1410	2001.532	-155	2001.532	-1587.5	2001.532	-1807.5
2001.533	-2195	2001.533	-1307.5	2001.533	-122.5	2001.533	-1642.5	2001.533	-1667.5
2001.534	-2075	2001.534	-1292.5	2001.534	-135	2001.534	-1590	2001.534	-1725
2001.535	-2157.5	2001.535	-1357.5	2001.535	-132.5	2001.535	-1597.5	2001.535	-1697.5
2001.536	-2410	2001.536	-1352.5	2001.536	-187.5	2001.536	-1655	2001.536	-1797.5
2001.537	-2617.5	2001.537	-1407.5	2001.537	-145	2001.537	-1630	2001.537	-1877.5
2001.538	-2815	2001.538	-1490	2001.538	-142.5	2001.538	-1695	2001.538	-2005
2001.539	-2940	2001.539	-1675	2001.539	-122.5	2001.539	-1677.5	2001.539	-2147.5
2001.54	-3012.5	2001.54	-1760	2001.54	-160	2001.54	-1680	2001.54	-2222.5
2001.541	-3152.5	2001.541	-1790	2001.541	-160	2001.541	-1677.5	2001.541	-2282.5
2001.542	-3120	2001.542	-1857.5	2001.542	-160	2001.542	-1745	2001.542	-2290
2001.543	-3290	2001.543	-1890	2001.543	-152.5	2001.543	-1705	2001.543	-2352.5
2001.544	-3200	2001.544	-1942.5	2001.544	-160	2001.544	-1767.5	2001.544	-2285
2001.545	-2992.5	2001.545	-1895	2001.545	-112.5	2001.545	-1612.5	2001.545	-2247.5
2001.546	-2707.5	2001.546	-1772.5	2001.546	-110	2001.546	-1600	2001.546	-2120
2001.547	-2422.5	2001.547	-1577.5	2001.547	-95	2001.547	-1530	2001.547	-2015
2001.548	-2132.5	2001.548	-1487.5	2001.548	-80	2001.548	-1467.5	2001.548	-1870
2001.549	-2127.5	2001.549	-1360	2001.549	-102.5	2001.549	-1445	2001.549	-1752.5
2001.55	-1977.5	2001.55	-1320	2001.55	-60	2001.55	-1425	2001.55	-1692.5
2001.551	-1917.5	2001.551	-1172.5	2001.551	-45	2001.551	-1425	2001.551	-1602.5
2001.552	-1730	2001.552	-1192.5	2001.552	-42.5	2001.552	-1427.5	2001.552	-1562.5
2001.553	-1652.5	2001.553	-1170	2001.553	-40	2001.553	-1375	2001.553	-1432.5
2001.554	-1765	2001.554	-1077.5	2001.554	-37.5	2001.554	-1305	2001.554	-1460
2001.555	-1830	2001.555	-1022.5	2001.555	-55	2001.555	-1282.5	2001.555	-1467.5
2001.556	-2140	2001.556	-1182.5	2001.556	-40	2001.556	-1352.5	2001.556	-1535
2001.557	-2352.5	2001.557	-1260	2001.557	-35	2001.557	-1415	2001.557	-1660
2001.558	-2345	2001.558	-1262.5	2001.558	7.5	2001.558	-1387.5	2001.558	-1710
2001.559	-2612.5	2001.559	-1412.5	2001.559	-5	2001.559	-1425	2001.559	-1802.5
2001.56	-2637.5	2001.56	-1440	2001.56	25	2001.56	-1355	2001.56	-1862.5
2001.561	-2770	2001.561	-1515	2001.561	57.5	2001.561	-1405	2001.561	-1905
2001.562	-2782.5	2001.562	-1542.5	2001.562	37.5	2001.562	-1330	2001.562	-1850
2001.563	-2842.5	2001.563	-1572.5	2001.563	45	2001.563	-1285	2001.563	-1872.5
2001.564	-2815	2001.564	-1572.5	2001.564	57.5	2001.564	-1270	2001.564	-1917.5
2001.565	-2615	2001.565	-1557.5	2001.565	82.5	2001.565	-1217.5	2001.565	-1787.5
2001.566	-2342.5	2001.566	-1420	2001.566	70	2001.566	-1230	2001.566	-1685
2001.567	-2322.5	2001.567	-1402.5	2001.567	70	2001.567	-1175	2001.567	-1642.5
2001.568	-2072.5	2001.568	-1287.5	2001.568	120	2001.568	-1112.5	2001.568	-1525
2001.569	-1897.5	2001.569	-1207.5	2001.569	67.5	2001.569	-1107.5	2001.569	-1370
2001.57	-1722.5	2001.57	-1140	2001.57	100	2001.57	-1085	2001.57	-1202.5
2001.571	-1547.5	2001.571	-1045	2001.571	70	2001.571	-997.5	2001.571	-1172.5
2001.572	-1592.5	2001.572	-937.5	2001.572	92.5	2001.572	-1007.5	2001.572	-1115
2001.573	-1497.5	2001.573	-912.5	2001.573	107.5	2001.573	-930	2001.573	-1080
2001.574	-1345	2001.574	-865	2001.574	127.5	2001.574	-967.5	2001.574	-1055
2001.575	-1510	2001.575	-797.5	2001.575	152.5	2001.575	-1000	2001.575	-1000
2001.576	-1535	2001.576	-880	2001.576	182.5	2001.576	-912.5	2001.576	-1132.5
2001.577	-1807.5	2001.577	-937.5	2001.577	142.5	2001.577	-952.5	2001.577	-1147.5
2001.578	-2232.5	2001.578	-1107.5	2001.578	127.5	2001.578	-1035	2001.578	-1367.5
2001.579	-2262.5	2001.579	-1287.5	2001.579	65	2001.579	-1127.5	2001.579	-1515
2001.58	-2577.5	2001.58	-1527.5	2001.58	-2.5	2001.58	-1265	2001.58	-1775
2001.581	-2925	2001.581	-1837.5	2001.581	-142.5	2001.581	-1567.5	2001.581	-2085
2001.582	-2915	2001.582	-1820	2001.582	-97.5	2001.582	-1475	2001.582	-2005
2001.583	-3295	2001.583	-2177.5	2001.583	-287.5	2001.583	-1820	2001.583	-2390
2001.584	-3420	2001.584	-2440	2001.584	-417.5	2001.584	-2157.5	2001.584	-2665
2001.585	-3415	2001.585	-2647.5	2001.585	-490	2001.585	-2365	2001.585	-2775
2001.586	-3195	2001.586	-2485	2001.586	-402.5	2001.586	-2237.5	2001.586	-2677.5
2001.587	-2627.5	2001.587	-2025	2001.587	-100	2001.587	-1795	2001.587	-2180
2001.588	-2060	2001.588	-1420	2001.588	175	2001.588	-1185	2001.588	-1557.5
2001.589	-1782.5	2001.589	-1057.5	2001.589	332.5	2001.589	-862.5	2001.589	-1157.5
2001.59	-1450	2001.59	-682.5	2001.59	432.5	2001.59	-592.5	2001.59	-882.5
2001.591	-655	2001.591	-117.5	2001.591	670	2001.591	20	2001.591	-317.5
2001.592	-340	2001.592	285	2001.592	775	2001.592	322.5	2001.592	50
2001.593	-547.5	2001.593	-110	2001.593	480	2001.593	-197.5	2001.593	-260
2001.594	-692.5	2001.594	-65	2001.594	492.5	2001.594	-162.5	2001.594	-220
2001.595	-767.5	2001.595	-300	2001.595	372.5	2001.595	-412.5	2001.595	-470
2001.596	-1470	2001.596	-1032.5	2001.596	-62.5	2001.596	-1135	2001.596	-1260
2001.597	-2557.5	2001.597	-2187.5	2001.597	-675	2001.597	-2267.5	2001.597	-2372.5
2001.598	-2465	2001.598	-1455	2001.598	77.5	2001.598	-1462.5	2001.598	-1740
2001.599	-2130	2001.599	-1057.5	2001.599	267.5	2001.599	-920	2001.599	-1272.5
2001.6	-2422.5	2001.6	-1472.5	2001.6	17.5	2001.6	-1290	2001.6	-1645
2001.601	-2427.5	2001.601	-1432.5	2001.601	82.5	2001.601	-1177.5	2001.601	-1730
2001.602	-2507.5	2001.602	-1372.5	2001.602	215	2001.602	-1115	2001.602	-1632.5
2001.603	-2497.5	2001.603	-1610	2001.603	20	2001.603	-1295	2001.603	-1850
2001.604	-2732.5	2001.604	-1860	2001.604	-140	2001.604	-1557.5	2001.604	-2125
2001.605	-2785	2001.605	-1995	2001.605	-192.5	2001.605	-1685	2001.605	-2200
2001.606	-2577.5	2001.606	-1957.5	2001.606	-230	2001.606	-1670	2001.606	-2155
2001.607	-2935	2001.607	-2480	2001.607	-600	2001.607	-2262.5	2001.607	-2617.5
2001.608	-3122.5	2001.608	-2810	2001.608	-792.5	2001.608	-2747.5	2001.608	-3022.5
2001.609	-3177.5	2001.609	-3062.5	2001.609	-912.5	2001.609	-2950	2001.609	-3197.5
2001.61	-3257.5	2001.61	-3185	2001.61	-977.5	2001.61	-3200	2001.61	-3322.5
2001.611	-3222.5	2001.611	-3112.5	2001.611	-950	2001.611	-3187.5	2001.611	-3315
2001.612	-3317.5	2001.612	-3030	2001.612	-875	2001.612	-3175	2001.612	-3235
2001.613	-3235	2001.613	-2957.5	2001.613	-852.5	2001.613	-3135	2001.613	-3145
2001.614	-3242.5	2001.614	-2902.5	2001.614	-820	2001.614	-3097.5	2001.614	-3095
2001.615	-3367.5	2001.615	-2902.5	2001.615	-782.5	2001.615	-3077.5	2001.615	-3095
2001.616	-3560	2001.616	-2880	2001.616	-740	2001.616	-3005	2001.616	-3125
2001.617	-3667.5	2001.617	-2872.5	2001.617	-695	2001.617	-2912.5	2001.617	-3095
2001.618	-3822.5	2001.618	-2865	2001.618	-645	2001.618	-2915	2001.618	-3062.5
2001.619	-3930	2001.619	-2877.5	2001.619	-595	2001.619	-2750	2001.619	-3162.5
2001.62	-4035	2001.62	-2845	2001.62	-540	2001.62	-2730	2001.62	-3155
2001.621	-4025	2001.621	-2807.5	2001.621	-502.5	2001.621	-2640	2001.621	-3127.5
2001.622	-3890	2001.622	-2830	2001.622	-432.5	2001.622	-2505	2001.622	-3107.5
2001.623	-3892.5	2001.623	-2832.5	2001.623	-407.5	2001.623	-2420	2001.623	-3010
2001.624	-3770	2001.624	-2787.5	2001.624	-362.5	2001.624	-2412.5	2001.624	-2937.5
2001.625	-3685	2001.625	-2712.5	2001.625	-397.5	2001.625	-2405	2001.625	-2897.5
2001.626	-3422.5	2001.626	-2607.5	2001.626	-332.5	2001.626	-2270	2001.626	-2812.5
2001.627	-3185	2001.627	-2542.5	2001.627	-317.5	2001.627	-2262.5	2001.627	-2670
2001.628	-2850	2001.628	-2297.5	2001.628	-275	2001.628	-2097.5	2001.628	-2460
2001.629	-2585	2001.629	-2102.5	2001.629	-242.5	2001.629	-1982.5	2001.629	-2375
2001.63	-2425	2001.63	-1970	2001.63	-185	2001.63	-1867.5	2001.63	-2180
2001.631	-2112.5	2001.631	-1822.5	2001.631	-182.5	2001.631	-1777.5	2001.631	-2002.5
2001.632	-2117.5	2001.632	-1705	2001.632	-157.5	2001.632	-1742.5	2001.632	-1962.5
2001.633	-1940	2001.633	-1635	2001.633	-122.5	2001.633	-1747.5	2001.633	-1822.5
2001.634	-2015	2001.634	-1645	2001.634	-80	2001.634	-1692.5	2001.634	-1812.5
2001.635	-2020	2001.635	-1677.5	2001.635	-127.5	2001.635	-1725	2001.635	-1857.5
2001.636	-2322.5	2001.636	-1667.5	2001.636	-135	2001.636	-1700	2001.636	-2005
2001.637	-2405	2001.637	-1690	2001.637	-132.5	2001.637	-1680	2001.637	-1940
2001.638	-2575	2001.638	-1737.5	2001.638	-102.5	2001.638	-1690	2001.638	-1987.5
2001.639	-2672.5	2001.639	-1835	2001.639	-117.5	2001.639	-1720	2001.639	-2002.5
2001.64	-2940	2001.64	-1915	2001.64	-92.5	2001.64	-1692.5	2001.64	-2060
2001.641	-2850	2001.641	-1997.5	2001.641	-115	2001.641	-1730	2001.641	-2182.5
2001.642	-2915	2001.642	-2082.5	2001.642	-112.5	2001.642	-1745	2001.642	-2317.5
2001.643	-3267.5	2001.643	-2405	2001.643	-302.5	2001.643	-2040	2001.643	-2680
2001.644	-3765	2001.644	-3182.5	2001.644	-755	2001.644	-2855	2001.644	-3342.5
2001.645	-4107.5	2001.645	-3675	2001.645	-1082.5	2001.645	-3482.5	2001.645	-3842.5
2001.646	-3095	2001.646	-2497.5	2001.646	-410	2001.646	-2295	2001.646	-2622.5
2001.647	-452.5	2001.647	-62.5	2001.647	695	2001.647	435	2001.647	455
2001.648	4752.5	2001.648	5000	2001.648	3300	2001.648	6350	2001.648	6910
2001.649	12805	2001.649	12835	2001.649	7045	2001.649	15117.5	2001.649	16292.5
2001.65	22800	2001.65	22480	2001.65	11752.5	2001.65	25770	2001.65	27082.5
2001.651	30897.5	2001.651	31012.5	2001.651	16415	2001.651	34842.5	2001.651	35620
2001.652	37050	2001.652	40310	2001.652	22035	2001.652	44395	2001.652	42745
2001.653	42127.5	2001.653	51090	2001.653	27305	2001.653	55510	2001.653	49017.5
2001.654	47047.5	2001.654	58182.5	2001.654	26117.5	2001.654	61497.5	2001.654	53302.5
2001.655	52715	2001.655	61120	2001.655	21865	2001.655	58545	2001.655	56430
2001.656	57572.5	2001.656	66750	2001.656	19770	2001.656	10080	2001.656	51437.5
2001.657	41367.5	2001.657	-4022.5	2001.657	-14290	2001.657	-18110	2001.657	-15145
2001.658	4585	2001.658	-14117.5	2001.658	-8047.5	2001.658	-10817.5	2001.658	-7720
2001.659	2312.5	2001.659	-6312.5	2001.659	-4175	2001.659	-7377.5	2001.659	-4377.5
2001.66	4997.5	2001.66	-2095	2001.66	-1717.5	2001.66	-3507.5	2001.66	-925
2001.661	7505	2001.661	685	2001.661	-310	2001.661	-462.5	2001.661	1927.5
2001.662	9222.5	2001.662	2300	2001.662	220	2001.662	997.5	2001.662	3642.5
2001.663	10300	2001.663	2707.5	2001.663	50	2001.663	1222.5	2001.663	4275
2001.664	12117.5	2001.664	3860	2001.664	377.5	2001.664	2055	2001.664	5515
2001.665	14230	2001.665	5295	2001.665	712.5	2001.665	2995	2001.665	6847.5
2001.666	16722.5	2001.666	6742.5	2001.666	1050	2001.666	3900	2001.666	8442.5
2001.667	19127.5	2001.667	8572.5	2001.667	1485	2001.667	4862.5	2001.667	10127.5
2001.668	21555	2001.668	10322.5	2001.668	1862.5	2001.668	6000	2001.668	11757.5
2001.669	23502.5	2001.669	12302.5	2001.669	2415	2001.669	7320	2001.669	13577.5
2001.67	25215	2001.67	14422.5	2001.67	3127.5	2001.67	8980	2001.67	15407.5
2001.671	26175	2001.671	16375	2001.671	3992.5	2001.671	10892.5	2001.671	17062.5
2001.672	26600	2001.672	17852.5	2001.672	4855	2001.672	12595	2001.672	18452.5
2001.673	26675	2001.673	18977.5	2001.673	5650	2001.673	14340	2001.673	19310
2001.674	26320	2001.674	19635	2001.674	6275	2001.674	15557.5	2001.674	19837.5
2001.675	25662.5	2001.675	19912.5	2001.675	6760	2001.675	16570	2001.675	20007.5
2001.676	24935	2001.676	19865	2001.676	7087.5	2001.676	17242.5	2001.676	19932.5
2001.677	24112.5	2001.677	19580	2001.677	7282.5	2001.677	17605	2001.677	19750
2001.678	23162.5	2001.678	19117.5	2001.678	7310	2001.678	17722.5	2001.678	19277.5
2001.679	22110	2001.679	18490	2001.679	7190	2001.679	17572.5	2001.679	18695
2001.68	21045	2001.68	17845	2001.68	6980	2001.68	17227.5	2001.68	18030
2001.681	20027.5	2001.681	17125	2001.681	6710	2001.681	16750	2001.681	17472.5
2001.682	19072.5	2001.682	16362.5	2001.682	6420	2001.682	16212.5	2001.682	16822.5
2001.683	18342.5	2001.683	15722.5	2001.683	6142.5	2001.683	15780	2001.683	16167.5
2001.684	17547.5	2001.684	15092.5	2001.684	5875	2001.684	15265	2001.684	15517.5
2001.685	16905	2001.685	14442.5	2001.685	5592.5	2001.685	14722.5	2001.685	14972.5
2001.686	16435	2001.686	13912.5	2001.686	5320	2001.686	14237.5	2001.686	14507.5
2001.687	15867.5	2001.687	13382.5	2001.687	5030	2001.687	13712.5	2001.687	13990
2001.688	15310	2001.688	12847.5	2001.688	4707.5	2001.688	13227.5	2001.688	13525
2001.689	14847.5	2001.689	12337.5	2001.689	4467.5	2001.689	12837.5	2001.689	13065
2001.69	14242.5	2001.69	11872.5	2001.69	4190	2001.69	12370	2001.69	12592.5
2001.691	13800	2001.691	11375	2001.691	3965	2001.691	11807.5	2001.691	12262.5
2001.692	13192.5	2001.692	10920	2001.692	3747.5	2001.692	11322.5	2001.692	11762.5
2001.693	12710	2001.693	10537.5	2001.693	3527.5	2001.693	10902.5	2001.693	11437.5
2001.694	12000	2001.694	10047.5	2001.694	3290	2001.694	10385	2001.694	10870
2001.695	11395	2001.695	9600	2001.695	3055	2001.695	9940	2001.695	10492.5
2001.696	10622.5	2001.696	9022.5	2001.696	2832.5	2001.696	9470	2001.696	9942.5
2001.697	9987.5	2001.697	8535	2001.697	2655	2001.697	9045	2001.697	9415
2001.698	9195	2001.698	8042.5	2001.698	2455	2001.698	8550	2001.698	8895
2001.699	8675	2001.699	7615	2001.699	2270	2001.699	8217.5	2001.699	8457.5
2001.7	8125	2001.7	7095	2001.7	2107.5	2001.7	7795	2001.7	8005
2001.701	7602.5	2001.701	6645	2001.701	1892.5	2001.701	7432.5	2001.701	7485
2001.702	7117.5	2001.702	6195	2001.702	1795	2001.702	7070	2001.702	7085
2001.703	6727.5	2001.703	5927.5	2001.703	1650	2001.703	6830	2001.703	6815
2001.704	6390	2001.704	5642.5	2001.704	1562.5	2001.704	6652.5	2001.704	6600
2001.705	6207.5	2001.705	5375	2001.705	1400	2001.705	6362.5	2001.705	6362.5
2001.706	6220	2001.706	5147.5	2001.706	1300	2001.706	6135	2001.706	6182.5
2001.707	6080	2001.707	4980	2001.707	1202.5	2001.707	5982.5	2001.707	6055
2001.708	6140	2001.708	4875	2001.708	1135	2001.708	5880	2001.708	6032.5
2001.709	6067.5	2001.709	4787.5	2001.709	1057.5	2001.709	5702.5	2001.709	5902.5
2001.71	5937.5	2001.71	4640	2001.71	970	2001.71	5555	2001.71	5800
2001.711	5740	2001.711	4462.5	2001.711	847.5	2001.711	5412.5	2001.711	5630
2001.712	5617.5	2001.712	4302.5	2001.712	742.5	2001.712	5235	2001.712	5532.5
2001.713	5385	2001.713	4115	2001.713	650	2001.713	5082.5	2001.713	5257.5
2001.714	5025	2001.714	3927.5	2001.714	570	2001.714	4930	2001.714	5130
2001.715	4805	2001.715	3770	2001.715	467.5	2001.715	4742.5	2001.715	4995
2001.716	4380	2001.716	3495	2001.716	420	2001.716	4520	2001.716	4662.5
2001.717	4135	2001.717	3232.5	2001.717	317.5	2001.717	4350	2001.717	4482.5
2001.718	3470	2001.718	2987.5	2001.718	262.5	2001.718	4162.5	2001.718	4180
2001.719	3002.5	2001.719	2712.5	2001.719	185	2001.719	3945	2001.719	3947.5
2001.72	2737.5	2001.72	2462.5	2001.72	137.5	2001.72	3770	2001.72	3660
2001.721	2377.5	2001.721	2177.5	2001.721	57.5	2001.721	3577.5	2001.721	3315
2001.722	2137.5	2001.722	2000	2001.722	-10	2001.722	3470	2001.722	3145
2001.723	1870	2001.723	1835	2001.723	-67.5	2001.723	3310	2001.723	2950
2001.724	1680	2001.724	1637.5	2001.724	-147.5	2001.724	3057.5	2001.724	2742.5
2001.725	1637.5	2001.725	1530	2001.725	-182.5	2001.725	2960	2001.725	2635
2001.726	1650	2001.726	1410	2001.726	-247.5	2001.726	2875	2001.726	2507.5
2001.727	1642.5	2001.727	1282.5	2001.727	-290	2001.727	2720	2001.727	2417.5
2001.728	1665	2001.728	1277.5	2001.728	-330	2001.728	2507.5	2001.728	2335
2001.729	1530	2001.729	1202.5	2001.729	-402.5	2001.729	2372.5	2001.729	2295
2001.73	1662.5	2001.73	1127.5	2001.73	-457.5	2001.73	2310	2001.73	2265
2001.731	1682.5	2001.731	1145	2001.731	-492.5	2001.731	2150	2001.731	2172.5
2001.732	1385	2001.732	1025	2001.732	-565	2001.732	1970	2001.732	2067.5
2001.733	1247.5	2001.733	885	2001.733	-605	2001.733	1795	2001.733	1885
2001.734	1047.5	2001.734	680	2001.734	-687.5	2001.734	1547.5	2001.734	1710
2001.735	650	2001.735	520	2001.735	-775	2001.735	1322.5	2001.735	1432.5
2001.736	255	2001.736	285	2001.736	-890	2001.736	1025	2001.736	1087.5
2001.737	-150	2001.737	-10	2001.737	-972.5	2001.737	832.5	2001.737	807.5
2001.738	-475	2001.738	-247.5	2001.738	-1032.5	2001.738	627.5	2001.738	507.5
2001.739	-940	2001.739	-502.5	2001.739	-1120	2001.739	407.5	2001.739	195
2001.74	-1235	2001.74	-800	2001.74	-1200	2001.74	167.5	2001.74	-102.5
2001.741	-1617.5	2001.741	-1117.5	2001.741	-1290	2001.741	-120	2001.741	-432.5
2001.742	-1820	2001.742	-1312.5	2001.742	-1355	2001.742	-355	2001.742	-722.5
2001.743	-1950	2001.743	-1497.5	2001.743	-1390	2001.743	-447.5	2001.743	-847.5
2001.744	-2100	2001.744	-1630	2001.744	-1437.5	2001.744	-522.5	2001.744	-985
2001.745	-2215	2001.745	-1817.5	2001.745	-1500	2001.745	-782.5	2001.745	-1200
2001.746	-2235	2001.746	-1870	2001.746	-1610	2001.746	-917.5	2001.746	-1297.5
2001.747	-2225	2001.747	-1945	2001.747	-1607.5	2001.747	-1027.5	2001.747	-1382.5
2001.748	-2155	2001.748	-1990	2001.748	-1662.5	2001.748	-1162.5	2001.748	-1417.5
2001.749	-2197.5	2001.749	-1935	2001.749	-1700	2001.749	-1245	2001.749	-1480
2001.75	-2047.5	2001.75	-2037.5	2001.75	-1675	2001.75	-1360	2001.75	-1495
2001.751	-1967.5	2001.751	-1970	2001.751	-1722.5	2001.751	-1447.5	2001.751	-1480
2001.752	-2222.5	2001.752	-2067.5	2001.752	-1777.5	2001.752	-1540	2001.752	-1497.5
2001.753	-2232.5	2001.753	-2145	2001.753	-1807.5	2001.753	-1645	2001.753	-1622.5
2001.754	-2455	2001.754	-2260	2001.754	-1885	2001.754	-1825	2001.754	-1770
2001.755	-2637.5	2001.755	-2300	2001.755	-1907.5	2001.755	-1977.5	2001.755	-1917.5
2001.756	-3040	2001.756	-2530	2001.756	-1920	2001.756	-2102.5	2001.756	-2182.5
2001.757	-3340	2001.757	-2662.5	2001.757	-1982.5	2001.757	-2197.5	2001.757	-2387.5
2001.758	-3670	2001.758	-2900	2001.758	-2000	2001.758	-2372.5	2001.758	-2597.5
2001.759	-3897.5	2001.759	-3012.5	2001.759	-2037.5	2001.759	-2480	2001.759	-2770
2001.76	-4232.5	2001.76	-3267.5	2001.76	-2075	2001.76	-2570	2001.76	-2955
2001.761	-4237.5	2001.761	-3412.5	2001.761	-2102.5	2001.761	-2635	2001.761	-3155
2001.762	-4355	2001.762	-3567.5	2001.762	-2110	2001.762	-2820	2001.762	-3327.5
2001.763	-4537.5	2001.763	-3615	2001.763	-2142.5	2001.763	-2905	2001.763	-3412.5
2001.764	-4527.5	2001.764	-3717.5	2001.764	-2125	2001.764	-2980	2001.764	-3517.5
2001.765	-4472.5	2001.765	-3740	2001.765	-2142.5	2001.765	-2990	2001.765	-3522.5
2001.766	-4235	2001.766	-3690	2001.766	-2137.5	2001.766	-3087.5	2001.766	-3492.5
2001.767	-4180	2001.767	-3645	2001.767	-2145	2001.767	-3087.5	2001.767	-3472.5
2001.768	-4045	2001.768	-3560	2001.768	-2135	2001.768	-3045	2001.768	-3420
2001.769	-3897.5	2001.769	-3502.5	2001.769	-2137.5	2001.769	-3072.5	2001.769	-3342.5
2001.77	-3797.5	2001.77	-3517.5	2001.77	-2167.5	2001.77	-3117.5	2001.77	-3295
2001.771	-3607.5	2001.771	-3390	2001.771	-2172.5	2001.771	-3057.5	2001.771	-3197.5
2001.772	-3690	2001.772	-3330	2001.772	-2157.5	2001.772	-3132.5	2001.772	-3127.5
2001.773	-3722.5	2001.773	-3325	2001.773	-2142.5	2001.773	-3115	2001.773	-3122.5
2001.774	-3890	2001.774	-3362.5	2001.774	-2145	2001.774	-3212.5	2001.774	-3085
2001.775	-3887.5	2001.775	-3422.5	2001.775	-2135	2001.775	-3230	2001.775	-3202.5
2001.776	-4145	2001.776	-3542.5	2001.776	-2152.5	2001.776	-3265	2001.776	-3395
2001.777	-4197.5	2001.777	-3600	2001.777	-2125	2001.777	-3362.5	2001.777	-3440
2001.778	-4567.5	2001.778	-3727.5	2001.778	-2107.5	2001.778	-3407.5	2001.778	-3615
2001.779	-4697.5	2001.779	-3902.5	2001.779	-2092.5	2001.779	-3475	2001.779	-3705
2001.78	-4855	2001.78	-3920	2001.78	-2117.5	2001.78	-3412.5	2001.78	-3847.5
2001.781	-4980	2001.781	-4105	2001.781	-2095	2001.781	-3522.5	2001.781	-3997.5
2001.782	-4920	2001.782	-4097.5	2001.782	-2047.5	2001.782	-3520	2001.782	-3952.5
2001.783	-4985	2001.783	-4062.5	2001.783	-1967.5	2001.783	-3482.5	2001.783	-3937.5
2001.784	-4890	2001.784	-4037.5	2001.784	-1930	2001.784	-3480	2001.784	-3972.5
2001.785	-4810	2001.785	-4017.5	2001.785	-1897.5	2001.785	-3437.5	2001.785	-3952.5
2001.786	-4597.5	2001.786	-3947.5	2001.786	-1917.5	2001.786	-3455	2001.786	-3887.5
2001.787	-4360	2001.787	-3942.5	2001.787	-1927.5	2001.787	-3440	2001.787	-3755
2001.788	-4107.5	2001.788	-3742.5	2001.788	-1860	2001.788	-3362.5	2001.788	-3657.5
2001.789	-3927.5	2001.789	-3757.5	2001.789	-1902.5	2001.789	-3387.5	2001.789	-3622.5
2001.79	-3882.5	2001.79	-3630	2001.79	-1852.5	2001.79	-3455	2001.79	-3505
2001.791	-3727.5	2001.791	-3607.5	2001.791	-1865	2001.791	-3307.5	2001.791	-3440
2001.792	-3675	2001.792	-3455	2001.792	-1832.5	2001.792	-3360	2001.792	-3342.5
2001.793	-3687.5	2001.793	-3430	2001.793	-1827.5	2001.793	-3262.5	2001.793	-3375
2001.794	-3785	2001.794	-3395	2001.794	-1765	2001.794	-3282.5	2001.794	-3335
2001.795	-3842.5	2001.795	-3395	2001.795	-1732.5	2001.795	-3280	2001.795	-3337.5
2001.796	-4015	2001.796	-3480	2001.796	-1737.5	2001.796	-3247.5	2001.796	-3352.5
2001.797	-4172.5	2001.797	-3542.5	2001.797	-1717.5	2001.797	-3297.5	2001.797	-3402.5
2001.798	-4395	2001.798	-3670	2001.798	-1715	2001.798	-3390	2001.798	-3567.5
2001.799	-4512.5	2001.799	-3745	2001.799	-1712.5	2001.799	-3420	2001.799	-3665
2001.8	-4650	2001.8	-3800	2001.8	-1700	2001.8	-3435	2001.8	-3762.5
2001.801	-4765	2001.801	-3917.5	2001.801	-1690	2001.801	-3490	2001.801	-3875
2001.802	-4912.5	2001.802	-4002.5	2001.802	-1707.5	2001.802	-3515	2001.802	-3920
2001.803	-4935	2001.803	-4020	2001.803	-1670	2001.803	-3495	2001.803	-3962.5
2001.804	-4827.5	2001.804	-4050	2001.804	-1662.5	2001.804	-3487.5	2001.804	-3955
2001.805	-4652.5	2001.805	-3907.5	2001.805	-1640	2001.805	-3427.5	2001.805	-3837.5
2001.806	-4430	2001.806	-3762.5	2001.806	-1587.5	2001.806	-3315	2001.806	-3657.5
2001.807	-4170	2001.807	-3700	2001.807	-1515	2001.807	-3220	2001.807	-3540
2001.808	-3962.5	2001.808	-3585	2001.808	-1535	2001.808	-3135	2001.808	-3460
2001.809	-3732.5	2001.809	-3457.5	2001.809	-1472.5	2001.809	-3160	2001.809	-3335
2001.81	-3630	2001.81	-3417.5	2001.81	-1437.5	2001.81	-3125	2001.81	-3202.5
2001.811	-3405	2001.811	-3295	2001.811	-1442.5	2001.811	-3060	2001.811	-3105
2001.812	-3295	2001.812	-3257.5	2001.812	-1450	2001.812	-3040	2001.812	-3110
2001.813	-3370	2001.813	-3197.5	2001.813	-1407.5	2001.813	-3037.5	2001.813	-3012.5
2001.814	-3387.5	2001.814	-3135	2001.814	-1410	2001.814	-3052.5	2001.814	-2997.5
2001.815	-3440	2001.815	-3162.5	2001.815	-1380	2001.815	-3025	2001.815	-3005
2001.816	-3812.5	2001.816	-3235	2001.816	-1385	2001.816	-3022.5	2001.816	-3097.5
2001.817	-3947.5	2001.817	-3317.5	2001.817	-1345	2001.817	-3097.5	2001.817	-3220
2001.818	-4177.5	2001.818	-3435	2001.818	-1375	2001.818	-3177.5	2001.818	-3287.5
2001.819	-4260	2001.819	-3605	2001.819	-1417.5	2001.819	-3175	2001.819	-3470
2001.82	-4420	2001.82	-3650	2001.82	-1405	2001.82	-3225	2001.82	-3587.5
2001.821	-4727.5	2001.821	-3772.5	2001.821	-1397.5	2001.821	-3222.5	2001.821	-3705
2001.822	-4722.5	2001.822	-3775	2001.822	-1405	2001.822	-3185	2001.822	-3847.5
2001.823	-4795	2001.823	-3825	2001.823	-1350	2001.823	-3215	2001.823	-3850
2001.824	-4660	2001.824	-3890	2001.824	-1410	2001.824	-3230	2001.824	-3735
2001.825	-4545	2001.825	-3782.5	2001.825	-1362.5	2001.825	-3217.5	2001.825	-3685
2001.826	-4255	2001.826	-3697.5	2001.826	-1342.5	2001.826	-3142.5	2001.826	-3585
2001.827	-4002.5	2001.827	-3607.5	2001.827	-1295	2001.827	-3120	2001.827	-3455
2001.828	-3877.5	2001.828	-3450	2001.828	-1337.5	2001.828	-3122.5	2001.828	-3345
2001.829	-3735	2001.829	-3367.5	2001.829	-1280	2001.829	-3002.5	2001.829	-3260
2001.83	-3405	2001.83	-3275	2001.83	-1280	2001.83	-2950	2001.83	-3212.5
2001.831	-3242.5	2001.831	-3192.5	2001.831	-1252.5	2001.831	-2925	2001.831	-3010
2001.832	-3235	2001.832	-3097.5	2001.832	-1212.5	2001.832	-2967.5	2001.832	-2932.5
2001.833	-3165	2001.833	-3040	2001.833	-1220	2001.833	-2902.5	2001.833	-2937.5
2001.834	-3062.5	2001.834	-2965	2001.834	-1187.5	2001.834	-2922.5	2001.834	-2887.5
2001.835	-3330	2001.835	-3040	2001.835	-1175	2001.835	-2895	2001.835	-2905
2001.836	-3550	2001.836	-3135	2001.836	-1152.5	2001.836	-2890	2001.836	-3017.5
2001.837	-3617.5	2001.837	-3165	2001.837	-1122.5	2001.837	-2930	2001.837	-2957.5
2001.838	-3735	2001.838	-3215	2001.838	-1092.5	2001.838	-2832.5	2001.838	-3092.5
2001.839	-3995	2001.839	-3322.5	2001.839	-1080	2001.839	-2895	2001.839	-3227.5
2001.84	-4150	2001.84	-3355	2001.84	-1075	2001.84	-2927.5	2001.84	-3220
2001.841	-4255	2001.841	-3367.5	2001.841	-1027.5	2001.841	-2975	2001.841	-3345
2001.842	-4257.5	2001.842	-3487.5	2001.842	-1027.5	2001.842	-2942.5	2001.842	-3352.5
2001.843	-4257.5	2001.843	-3495	2001.843	-1025	2001.843	-2992.5	2001.843	-3360
2001.844	-4260	2001.844	-3527.5	2001.844	-1030	2001.844	-2962.5	2001.844	-3410
2001.845	-4127.5	2001.845	-3482.5	2001.845	-990	2001.845	-2927.5	2001.845	-3402.5
2001.846	-3787.5	2001.846	-3340	2001.846	-990	2001.846	-2827.5	2001.846	-3285
2001.847	-3617.5	2001.847	-3267.5	2001.847	-965	2001.847	-2877.5	2001.847	-3125
2001.848	-3490	2001.848	-3162.5	2001.848	-940	2001.848	-2797.5	2001.848	-3065
2001.849	-3170	2001.849	-3005	2001.849	-920	2001.849	-2757.5	2001.849	-2880
2001.85	-2870	2001.85	-2870	2001.85	-882.5	2001.85	-2702.5	2001.85	-2765
2001.851	-2785	2001.851	-2722.5	2001.851	-785	2001.851	-2525	2001.851	-2630
2001.852	-2865	2001.852	-2730	2001.852	-732.5	2001.852	-2600	2001.852	-2552.5
2001.853	-2687.5	2001.853	-2535	2001.853	-730	2001.853	-2430	2001.853	-2435
2001.854	-2707.5	2001.854	-2482.5	2001.854	-677.5	2001.854	-2452.5	2001.854	-2427.5
2001.855	-2855	2001.855	-2527.5	2001.855	-662.5	2001.855	-2527.5	2001.855	-2447.5
2001.856	-3052.5	2001.856	-2625	2001.856	-660	2001.856	-2500	2001.856	-2500
2001.857	-3127.5	2001.857	-2682.5	2001.857	-640	2001.857	-2587.5	2001.857	-2667.5
2001.858	-3380	2001.858	-2837.5	2001.858	-640	2001.858	-2652.5	2001.858	-2735
2001.859	-3712.5	2001.859	-2962.5	2001.859	-735	2001.859	-2712.5	2001.859	-2892.5
2001.86	-3817.5	2001.86	-3042.5	2001.86	-725	2001.86	-2765	2001.86	-3000
2001.861	-3885	2001.861	-3120	2001.861	-712.5	2001.861	-2760	2001.861	-3092.5
2001.862	-3967.5	2001.862	-3207.5	2001.862	-702.5	2001.862	-2825	2001.862	-3112.5
2001.863	-4045	2001.863	-3265	2001.863	-702.5	2001.863	-2872.5	2001.863	-3212.5
2001.864	-3997.5	2001.864	-3235	2001.864	-750	2001.864	-2782.5	2001.864	-3185
2001.865	-3747.5	2001.865	-3180	2001.865	-700	2001.865	-2777.5	2001.865	-3170
2001.866	-3552.5	2001.866	-3035	2001.866	-667.5	2001.866	-2695	2001.866	-3030
2001.867	-3447.5	2001.867	-3007.5	2001.867	-687.5	2001.867	-2720	2001.867	-3047.5
2001.868	-3130	2001.868	-2865	2001.868	-675	2001.868	-2640	2001.868	-2947.5
2001.869	-3062.5	2001.869	-2735	2001.869	-690	2001.869	-2700	2001.869	-2872.5
2001.87	-2870	2001.87	-2680	2001.87	-627.5	2001.87	-2602.5	2001.87	-2700
2001.871	-2825	2001.871	-2612.5	2001.871	-602.5	2001.871	-2620	2001.871	-2557.5
2001.872	-2567.5	2001.872	-2435	2001.872	-555	2001.872	-2540	2001.872	-2517.5
2001.873	-2635	2001.873	-2450	2001.873	-552.5	2001.873	-2495	2001.873	-2397.5
2001.874	-2600	2001.874	-2425	2001.874	-520	2001.874	-2550	2001.874	-2350
2001.875	-2762.5	2001.875	-2447.5	2001.875	-522.5	2001.875	-2527.5	2001.875	-2417.5
2001.876	-2980	2001.876	-2472.5	2001.876	-527.5	2001.876	-2585	2001.876	-2522.5
2001.877	-3240	2001.877	-2572.5	2001.877	-525	2001.877	-2587.5	2001.877	-2592.5
2001.878	-3482.5	2001.878	-2702.5	2001.878	-542.5	2001.878	-2680	2001.878	-2755
2001.879	-3645	2001.879	-2775	2001.879	-540	2001.879	-2747.5	2001.879	-2832.5
2001.88	-3732.5	2001.88	-2847.5	2001.88	-537.5	2001.88	-2752.5	2001.88	-2957.5
2001.881	-3995	2001.881	-2975	2001.881	-555	2001.881	-2810	2001.881	-3142.5
2001.882	-4050	2001.882	-3092.5	2001.882	-545	2001.882	-2790	2001.882	-3155
2001.883	-3917.5	2001.883	-3077.5	2001.883	-540	2001.883	-2785	2001.883	-3170
2001.884	-3855	2001.884	-2985	2001.884	-500	2001.884	-2780	2001.884	-3190
2001.885	-3722.5	2001.885	-2932.5	2001.885	-470	2001.885	-2722.5	2001.885	-3177.5
2001.886	-3462.5	2001.886	-2872.5	2001.886	-477.5	2001.886	-2730	2001.886	-2970
2001.887	-3397.5	2001.887	-2847.5	2001.887	-480	2001.887	-2700	2001.887	-3015
2001.888	-3205	2001.888	-2702.5	2001.888	-452.5	2001.888	-2645	2001.888	-2870
2001.889	-3212.5	2001.889	-2647.5	2001.889	-445	2001.889	-2607.5	2001.889	-2810
2001.89	-3100	2001.89	-2530	2001.89	-477.5	2001.89	-2552.5	2001.89	-2707.5
2001.891	-2867.5	2001.891	-2462.5	2001.891	-467.5	2001.891	-2565	2001.891	-2582.5
2001.892	-2947.5	2001.892	-2357.5	2001.892	-477.5	2001.892	-2577.5	2001.892	-2592.5
2001.893	-2932.5	2001.893	-2297.5	2001.893	-467.5	2001.893	-2455	2001.893	-2547.5
2001.894	-2875	2001.894	-2227.5	2001.894	-437.5	2001.894	-2500	2001.894	-2485
2001.895	-2997.5	2001.895	-2302.5	2001.895	-437.5	2001.895	-2465	2001.895	-2557.5
2001.896	-3265	2001.896	-2357.5	2001.896	-472.5	2001.896	-2587.5	2001.896	-2700
2001.897	-3380	2001.897	-2427.5	2001.897	-440	2001.897	-2542.5	2001.897	-2765
2001.898	-3615	2001.898	-2482.5	2001.898	-452.5	2001.898	-2602.5	2001.898	-2792.5
2001.899	-3777.5	2001.899	-2617.5	2001.899	-407.5	2001.899	-2550	2001.899	-2910
2001.9	-3977.5	2001.9	-2660	2001.9	-410	2001.9	-2545	2001.9	-3030
2001.901	-4000	2001.901	-2672.5	2001.901	-360	2001.901	-2482.5	2001.901	-3105
2001.902	-4017.5	2001.902	-2685	2001.902	-387.5	2001.902	-2492.5	2001.902	-3092.5
2001.903	-4067.5	2001.903	-2707.5	2001.903	-347.5	2001.903	-2512.5	2001.903	-3087.5
2001.904	-4112.5	2001.904	-2702.5	2001.904	-352.5	2001.904	-2430	2001.904	-3092.5
2001.905	-3995	2001.905	-2677.5	2001.905	-332.5	2001.905	-2395	2001.905	-3012.5
2001.906	-3682.5	2001.906	-2542.5	2001.906	-285	2001.906	-2382.5	2001.906	-2937.5
2001.907	-3592.5	2001.907	-2435	2001.907	-335	2001.907	-2335	2001.907	-2762.5
2001.908	-3422.5	2001.908	-2365	2001.908	-322.5	2001.908	-2337.5	2001.908	-2675
2001.909	-3255	2001.909	-2312.5	2001.909	-350	2001.909	-2282.5	2001.909	-2577.5
2001.91	-3222.5	2001.91	-2262.5	2001.91	-357.5	2001.91	-2247.5	2001.91	-2582.5
2001.911	-2955	2001.911	-2140	2001.911	-390	2001.911	-2182.5	2001.911	-2540
2001.912	-2922.5	2001.912	-2070	2001.912	-377.5	2001.912	-2185	2001.912	-2425
2001.913	-2825	2001.913	-2047.5	2001.913	-322.5	2001.913	-2165	2001.913	-2440
2001.914	-2947.5	2001.914	-2082.5	2001.914	-372.5	2001.914	-2185	2001.914	-2392.5
2001.915	-3000	2001.915	-2015	2001.915	-380	2001.915	-2222.5	2001.915	-2415
2001.916	-3092.5	2001.916	-2080	2001.916	-320	2001.916	-2205	2001.916	-2425
2001.917	-3362.5	2001.917	-2197.5	2001.917	-357.5	2001.917	-2250	2001.917	-2527.5
2001.918	-3655	2001.918	-2325	2001.918	-382.5	2001.918	-2257.5	2001.918	-2640
2001.919	-3712.5	2001.919	-2372.5	2001.919	-372.5	2001.919	-2230	2001.919	-2682.5
2001.92	-3752.5	2001.92	-2415	2001.92	-362.5	2001.92	-2280	2001.92	-2772.5
2001.921	-3897.5	2001.921	-2482.5	2001.921	-342.5	2001.921	-2302.5	2001.921	-2840
2001.922	-3925	2001.922	-2522.5	2001.922	-370	2001.922	-2355	2001.922	-2905
2001.923	-3962.5	2001.923	-2572.5	2001.923	-367.5	2001.923	-2307.5	2001.923	-2937.5
2001.924	-3852.5	2001.924	-2557.5	2001.924	-350	2001.924	-2305	2001.924	-2935
2001.925	-3775	2001.925	-2492.5	2001.925	-340	2001.925	-2270	2001.925	-2850
2001.926	-3467.5	2001.926	-2395	2001.926	-347.5	2001.926	-2252.5	2001.926	-2692.5
2001.927	-3352.5	2001.927	-2325	2001.927	-290	2001.927	-2212.5	2001.927	-2680
2001.928	-3065	2001.928	-2195	2001.928	-297.5	2001.928	-2097.5	2001.928	-2510
2001.929	-2872.5	2001.929	-2070	2001.929	-257.5	2001.929	-1997.5	2001.929	-2310
2001.93	-2620	2001.93	-1942.5	2001.93	-267.5	2001.93	-2007.5	2001.93	-2217.5
2001.931	-2487.5	2001.931	-1820	2001.931	-212.5	2001.931	-1992.5	2001.931	-2145
2001.932	-2535	2001.932	-1822.5	2001.932	-202.5	2001.932	-1837.5	2001.932	-1985
2001.933	-2472.5	2001.933	-1680	2001.933	-197.5	2001.933	-1917.5	2001.933	-1930
2001.934	-2530	2001.934	-1675	2001.934	-180	2001.934	-1872.5	2001.934	-1932.5
2001.935	-2575	2001.935	-1670	2001.935	-207.5	2001.935	-1850	2001.935	-1972.5
2001.936	-2915	2001.936	-1740	2001.936	-180	2001.936	-1905	2001.936	-2100
2001.937	-3027.5	2001.937	-1840	2001.937	-210	2001.937	-1925	2001.937	-2127.5
2001.938	-3255	2001.938	-1937.5	2001.938	-210	2001.938	-2000	2001.938	-2295
2001.939	-3365	2001.939	-1985	2001.939	-187.5	2001.939	-2010	2001.939	-2335
2001.94	-3530	2001.94	-2005	2001.94	-165	2001.94	-2002.5	2001.94	-2332.5
2001.941	-3487.5	2001.941	-2105	2001.941	-120	2001.941	-1897.5	2001.941	-2425
2001.942	-3567.5	2001.942	-2075	2001.942	-142.5	2001.942	-1880	2001.942	-2422.5
2001.943	-3535	2001.943	-2007.5	2001.943	-60	2001.943	-1802.5	2001.943	-2422.5
2001.944	-3567.5	2001.944	-2027.5	2001.944	-77.5	2001.944	-1825	2001.944	-2425
2001.945	-3287.5	2001.945	-1975	2001.945	-60	2001.945	-1767.5	2001.945	-2287.5
2001.946	-3030	2001.946	-1900	2001.946	-42.5	2001.946	-1772.5	2001.946	-2332.5
2001.947	-2887.5	2001.947	-1877.5	2001.947	-32.5	2001.947	-1720	2001.947	-2230
2001.948	-2552.5	2001.948	-1710	2001.948	-45	2001.948	-1662.5	2001.948	-2047.5
2001.949	-2560	2001.949	-1675	2001.949	-45	2001.949	-1642.5	2001.949	-2012.5
2001.95	-2350	2001.95	-1567.5	2001.95	-55	2001.95	-1645	2001.95	-1877.5
2001.951	-2205	2001.951	-1467.5	2001.951	-62.5	2001.951	-1567.5	2001.951	-1812.5
2001.952	-2187.5	2001.952	-1427.5	2001.952	-60	2001.952	-1497.5	2001.952	-1800
2001.953	-2100	2001.953	-1402.5	2001.953	-57.5	2001.953	-1482.5	2001.953	-1727.5
2001.954	-2072.5	2001.954	-1417.5	2001.954	-62.5	2001.954	-1547.5	2001.954	-1657.5
2001.955	-2402.5	2001.955	-1450	2001.955	-107.5	2001.955	-1595	2001.955	-1745
2001.956	-2585	2001.956	-1522.5	2001.956	-117.5	2001.956	-1627.5	2001.956	-1812.5
2001.957	-2695	2001.957	-1562.5	2001.957	-110	2001.957	-1635	2001.957	-1910
2001.958	-2827.5	2001.958	-1717.5	2001.958	-140	2001.958	-1715	2001.958	-2032.5
2001.959	-3087.5	2001.959	-1765	2001.959	-117.5	2001.959	-1700	2001.959	-2120
2001.96	-3125	2001.96	-1835	2001.96	-102.5	2001.96	-1745	2001.96	-2200
2001.961	-3470	2001.961	-1900	2001.961	-117.5	2001.961	-1732.5	2001.961	-2270
2001.962	-3347.5	2001.962	-1940	2001.962	-127.5	2001.962	-1727.5	2001.962	-2312.5
2001.963	-3310	2001.963	-1967.5	2001.963	-127.5	2001.963	-1690	2001.963	-2320
2001.964	-3222.5	2001.964	-1967.5	2001.964	-112.5	2001.964	-1687.5	2001.964	-2322.5
2001.965	-3212.5	2001.965	-1932.5	2001.965	-110	2001.965	-1702.5	2001.965	-2265
2001.966	-2917.5	2001.966	-1887.5	2001.966	-125	2001.966	-1672.5	2001.966	-2227.5
2001.967	-2745	2001.967	-1842.5	2001.967	-120	2001.967	-1682.5	2001.967	-2127.5
2001.968	-2432.5	2001.968	-1635	2001.968	-105	2001.968	-1577.5	2001.968	-1955
2001.969	-2272.5	2001.969	-1590	2001.969	-105	2001.969	-1495	2001.969	-1830
2001.97	-2117.5	2001.97	-1510	2001.97	-107.5	2001.97	-1487.5	2001.97	-1750
2001.971	-2027.5	2001.971	-1430	2001.971	-107.5	2001.971	-1505	2001.971	-1725
2001.972	-1930	2001.972	-1387.5	2001.972	-130	2001.972	-1502.5	2001.972	-1632.5
2001.973	-1837.5	2001.973	-1367.5	2001.973	-127.5	2001.973	-1465	2001.973	-1500
2001.974	-1995	2001.974	-1347.5	2001.974	-162.5	2001.974	-1482.5	2001.974	-1587.5
2001.975	-2042.5	2001.975	-1365	2001.975	-180	2001.975	-1467.5	2001.975	-1602.5
2001.976	-2305	2001.976	-1372.5	2001.976	-152.5	2001.976	-1560	2001.976	-1625
2001.977	-2355	2001.977	-1452.5	2001.977	-132.5	2001.977	-1490	2001.977	-1655
2001.978	-2835	2001.978	-1630	2001.978	-157.5	2001.978	-1562.5	2001.978	-1785
2001.979	-2885	2001.979	-1672.5	2001.979	-127.5	2001.979	-1617.5	2001.979	-1885
2001.98	-2947.5	2001.98	-1647.5	2001.98	-142.5	2001.98	-1630	2001.98	-1982.5
2001.981	-3052.5	2001.981	-1810	2001.981	-125	2001.981	-1650	2001.981	-2062.5
2001.982	-3160	2001.982	-1835	2001.982	-147.5	2001.982	-1625	2001.982	-2072.5
2001.983	-3000	2001.983	-1872.5	2001.983	-150	2001.983	-1597.5	2001.983	-2125
2001.984	-2985	2001.984	-1867.5	2001.984	-152.5	2001.984	-1590	2001.984	-2095
2001.985	-2850	2001.985	-1855	2001.985	-130	2001.985	-1572.5	2001.985	-2085
2001.986	-2605	2001.986	-1770	2001.986	-117.5	2001.986	-1420	2001.986	-1942.5
2001.987	-2412.5	2001.987	-1695	2001.987	-102.5	2001.987	-1512.5	2001.987	-1907.5
2001.988	-2057.5	2001.988	-1497.5	2001.988	-120	2001.988	-1402.5	2001.988	-1722.5
2001.989	-1917.5	2001.989	-1372.5	2001.989	-72.5	2001.989	-1360	2001.989	-1602.5
2001.99	-2017.5	2001.99	-1285	2001.99	-100	2001.99	-1402.5	2001.99	-1510
2001.991	-1595	2001.991	-1167.5	2001.991	-55	2001.991	-1310	2001.991	-1342.5
2001.992	-1670	2001.992	-1110	2001.992	-77.5	2001.992	-1267.5	2001.992	-1312.5
2001.993	-1562.5	2001.993	-1032.5	2001.993	-95	2001.993	-1225	2001.993	-1327.5
2001.994	-1605	2001.994	-1032.5	2001.994	-82.5	2001.994	-1297.5	2001.994	-1312.5
2001.995	-1690	2001.995	-1072.5	2001.995	-82.5	2001.995	-1257.5	2001.995	-1325
2001.996	-1965	2001.996	-1155	2001.996	-50	2001.996	-1307.5	2001.996	-1395
2001.997	-2145	2001.997	-1195	2001.997	-62.5	2001.997	-1320	2001.997	-1445
2001.998	-2307.5	2001.998	-1250	2001.998	-70	2001.998	-1287.5	2001.998	-1557.5
2001.999	-2537.5	2001.999	-1352.5	2001.999	-35	2001.999	-1312.5	2001.999	-1632.5
2002	-2595	2002	-1402.5	2002	-20	2002	-1270	2002	-1772.5
2002.001	-2670	2002.001	-1510	2002.001	-35	2002.001	-1277.5	2002.001	-1730
2002.002	-2710	2002.002	-1470	2002.002	-10	2002.002	-1217.5	2002.002	-1805
2002.003	-2745	2002.003	-1532.5	2002.003	-35	2002.003	-1295	2002.003	-1817.5
2002.004	-2745	2002.004	-1525	2002.004	-20	2002.004	-1275	2002.004	-1887.5
2002.005	-2702.5	2002.005	-1627.5	2002.005	-27.5	2002.005	-1330	2002.005	-1805
2002.006	-2395	2002.006	-1482.5	2002.006	-60	2002.006	-1265	2002.006	-1722.5
2002.007	-2240	2002.007	-1370	2002.007	-30	2002.007	-1242.5	2002.007	-1677.5
2002.008	-1785	2002.008	-1280	2002.008	-25	2002.008	-1182.5	2002.008	-1515
2002.009	-1632.5	2002.009	-1207.5	2002.009	-42.5	2002.009	-1107.5	2002.009	-1412.5
2002.01	-1542.5	2002.01	-1080	2002.01	-20	2002.01	-1132.5	2002.01	-1272.5
2002.011	-1457.5	2002.011	-1042.5	2002.011	-55	2002.011	-1097.5	2002.011	-1170
2002.012	-1380	2002.012	-965	2002.012	-27.5	2002.012	-1122.5	2002.012	-1160
2002.013	-1337.5	2002.013	-940	2002.013	-47.5	2002.013	-1080	2002.013	-1095
2002.014	-1302.5	2002.014	-915	2002.014	-37.5	2002.014	-1105	2002.014	-1070
2002.015	-1492.5	2002.015	-1022.5	2002.015	-67.5	2002.015	-1087.5	2002.015	-1040
2002.016	-1685	2002.016	-1092.5	2002.016	-45	2002.016	-1135	2002.016	-1165
2002.017	-2030	2002.017	-1110	2002.017	-117.5	2002.017	-1212.5	2002.017	-1425
2002.018	-2280	2002.018	-1387.5	2002.018	-187.5	2002.018	-1442.5	2002.018	-1612.5
2002.019	-2682.5	2002.019	-1627.5	2002.019	-332.5	2002.019	-1650	2002.019	-1867.5
2002.02	-2747.5	2002.02	-1760	2002.02	-292.5	2002.02	-1657.5	2002.02	-1990
2002.021	-3192.5	2002.021	-2180	2002.021	-515	2002.021	-2097.5	2002.021	-2370
2002.022	-3565	2002.022	-2530	2002.022	-695	2002.022	-2397.5	2002.022	-2835
2002.023	-3910	2002.023	-2727.5	2002.023	-727.5	2002.023	-2595	2002.023	-3027.5
2002.024	-3657.5	2002.024	-2467.5	2002.024	-522.5	2002.024	-2305	2002.024	-2822.5
2002.025	-3025	2002.025	-2067.5	2002.025	-220	2002.025	-1790	2002.025	-2247.5
2002.026	-2455	2002.026	-1505	2002.026	57.5	2002.026	-1227.5	2002.026	-1787.5
2002.027	-2052.5	2002.027	-1152.5	2002.027	157.5	2002.027	-827.5	2002.027	-1387.5
2002.028	-1345	2002.028	-757.5	2002.028	297.5	2002.028	-515	2002.028	-1007.5
2002.029	-762.5	2002.029	-160	2002.029	542.5	2002.029	-20	2002.029	-455
2002.03	-592.5	2002.03	-22.5	2002.03	525	2002.03	75	2002.03	-252.5
2002.031	-705	2002.031	-372.5	2002.031	222.5	2002.031	-255	2002.031	-575
2002.032	-575	2002.032	-225	2002.032	347.5	2002.032	-130	2002.032	-397.5
2002.033	-725	2002.033	-582.5	2002.033	30	2002.033	-452.5	2002.033	-705
2002.034	-1417.5	2002.034	-1487.5	2002.034	-540	2002.034	-1565	2002.034	-1612.5
2002.035	-2395	2002.035	-2235	2002.035	-877.5	2002.035	-2335	2002.035	-2327.5
2002.036	-2147.5	2002.036	-1202.5	2002.036	-57.5	2002.036	-1237.5	2002.036	-1425
2002.037	-1897.5	2002.037	-1090	2002.037	-77.5	2002.037	-1022.5	2002.037	-1242.5
2002.038	-2267.5	2002.038	-1395	2002.038	-232.5	2002.038	-1382.5	2002.038	-1632.5
2002.039	-2375	2002.039	-1430	2002.039	-247.5	2002.039	-1395	2002.039	-1732.5
2002.04	-2397.5	2002.04	-1420	2002.04	-155	2002.04	-1292.5	2002.04	-1737.5
2002.041	-2810	2002.041	-1892.5	2002.041	-400	2002.041	-1695	2002.041	-2170
2002.042	-2990	2002.042	-2167.5	2002.042	-485	2002.042	-1837.5	2002.042	-2377.5
2002.043	-3010	2002.043	-2247.5	2002.043	-447.5	2002.043	-1862.5	2002.043	-2375
2002.044	-3285	2002.044	-2450	2002.044	-560	2002.044	-2102.5	2002.044	-2650
2002.045	-3587.5	2002.045	-3075	2002.045	-990	2002.045	-2755	2002.045	-3180
2002.046	-3750	2002.046	-3365	2002.046	-1105	2002.046	-3070	2002.046	-3427.5
2002.047	-3820	2002.047	-3515	2002.047	-1210	2002.047	-3360	2002.047	-3585
2002.048	-3785	2002.048	-3482.5	2002.048	-1227.5	2002.048	-3422.5	2002.048	-3665
2002.049	-3902.5	2002.049	-3435	2002.049	-1205	2002.049	-3480	2002.049	-3560
2002.05	-3542.5	2002.05	-3290	2002.05	-1180	2002.05	-3467.5	2002.05	-3480
2002.051	-3447.5	2002.051	-3242.5	2002.051	-1135	2002.051	-3342.5	2002.051	-3342.5
2002.052	-3277.5	2002.052	-3080	2002.052	-1060	2002.052	-3187.5	2002.052	-3240
2002.053	-3162.5	2002.053	-2995	2002.053	-1005	2002.053	-3162.5	2002.053	-3125
2002.054	-3030	2002.054	-2942.5	2002.054	-992.5	2002.054	-3045	2002.054	-3067.5
2002.055	-3150	2002.055	-2805	2002.055	-955	2002.055	-3082.5	2002.055	-3030
2002.056	-3447.5	2002.056	-2910	2002.056	-877.5	2002.056	-3017.5	2002.056	-3122.5
2002.057	-3497.5	2002.057	-2960	2002.057	-897.5	2002.057	-2987.5	2002.057	-3145
2002.058	-3737.5	2002.058	-2885	2002.058	-842.5	2002.058	-2927.5	2002.058	-3160
2002.059	-3927.5	2002.059	-2927.5	2002.059	-822.5	2002.059	-2835	2002.059	-3207.5
2002.06	-3880	2002.06	-2877.5	2002.06	-717.5	2002.06	-2800	2002.06	-3202.5
2002.061	-3872.5	2002.061	-2892.5	2002.061	-707.5	2002.061	-2750	2002.061	-3210
2002.062	-3750	2002.062	-2902.5	2002.062	-650	2002.062	-2600	2002.062	-3130
2002.063	-3675	2002.063	-2877.5	2002.063	-615	2002.063	-2565	2002.063	-3167.5
2002.064	-3620	2002.064	-2840	2002.064	-580	2002.064	-2535	2002.064	-3137.5
2002.065	-3447.5	2002.065	-2747.5	2002.065	-570	2002.065	-2445	2002.065	-3045
2002.066	-3285	2002.066	-2622.5	2002.066	-547.5	2002.066	-2377.5	2002.066	-2865
2002.067	-2990	2002.067	-2487.5	2002.067	-495	2002.067	-2295	2002.067	-2767.5
2002.068	-2677.5	2002.068	-2295	2002.068	-452.5	2002.068	-2172.5	2002.068	-2590
2002.069	-2397.5	2002.069	-2195	2002.069	-425	2002.069	-2085	2002.069	-2352.5
2002.07	-2277.5	2002.07	-2107.5	2002.07	-402.5	2002.07	-2002.5	2002.07	-2332.5
2002.071	-2150	2002.071	-2020	2002.071	-405	2002.071	-1920	2002.071	-2200
2002.072	-1985	2002.072	-1910	2002.072	-372.5	2002.072	-1910	2002.072	-2075
2002.073	-2042.5	2002.073	-1852.5	2002.073	-377.5	2002.073	-1935	2002.073	-2002.5
2002.074	-2097.5	2002.074	-1780	2002.074	-397.5	2002.074	-1942.5	2002.074	-2005
2002.075	-2047.5	2002.075	-1745	2002.075	-382.5	2002.075	-1960	2002.075	-2010
2002.076	-2307.5	2002.076	-1805	2002.076	-347.5	2002.076	-1942.5	2002.076	-2030
2002.077	-2387.5	2002.077	-1887.5	2002.077	-332.5	2002.077	-1930	2002.077	-2125
2002.078	-2607.5	2002.078	-1917.5	2002.078	-377.5	2002.078	-1977.5	2002.078	-2275
2002.079	-2837.5	2002.079	-2125	2002.079	-417.5	2002.079	-1975	2002.079	-2412.5
2002.08	-3032.5	2002.08	-2292.5	2002.08	-465	2002.08	-2137.5	2002.08	-2592.5
2002.081	-3490	2002.081	-2817.5	2002.081	-800	2002.081	-2645	2002.081	-3127.5
2002.082	-4290	2002.082	-3730	2002.082	-1277.5	2002.082	-3575	2002.082	-3960
2002.083	-4475	2002.083	-3912.5	2002.083	-1345	2002.083	-3855	2002.083	-4107.5
2002.084	-3092.5	2002.084	-2277.5	2002.084	-507.5	2002.084	-2132.5	2002.084	-2305
2002.085	250	2002.085	815	2002.085	1057.5	2002.085	1490	2002.085	1630
2002.086	6457.5	2002.086	6727.5	2002.086	3972.5	2002.086	8300	2002.086	8907.5
2002.087	15587.5	2002.087	15592.5	2002.087	8212.5	2002.087	18020	2002.087	19105
2002.088	25407.5	2002.088	25087.5	2002.088	12935	2002.088	28487.5	2002.088	29632.5
2002.089	32957.5	2002.089	33890	2002.089	18042.5	2002.089	37665	2002.089	37652.5
2002.09	38582.5	2002.09	43095	2002.09	23467.5	2002.09	47150	2002.09	43977.5
2002.091	43585	2002.091	53070	2002.091	27145	2002.091	56970	2002.091	48937.5
2002.092	48742.5	2002.092	59522.5	2002.092	24560	2002.092	60527.5	2002.092	52487.5
2002.093	53722.5	2002.093	62097.5	2002.093	21680	2002.093	52460	2002.093	52247.5
2002.094	55035	2002.094	60467.5	2002.094	11620	2002.094	-15235	2002.094	20720
2002.095	28797.5	2002.095	-19142.5	2002.095	-12455	2002.095	-13735	2002.095	-11275
2002.096	2240	2002.096	-10832.5	2002.096	-6727.5	2002.096	-9495	2002.096	-5845
2002.097	3162.5	2002.097	-5035	2002.097	-3757.5	2002.097	-6322.5	2002.097	-3182.5
2002.098	5880	2002.098	-1137.5	2002.098	-1490	2002.098	-2317.5	2002.098	455
2002.099	8077.5	2002.099	1212.5	2002.099	-335	2002.099	225	2002.099	2877.5
2002.1	9460	2002.1	2205	2002.1	-215	2002.1	1125	2002.1	4052.5
2002.101	10430	2002.101	2767.5	2002.101	-237.5	2002.101	1362.5	2002.101	4685
2002.102	12200	2002.102	4002.5	2002.102	122.5	2002.102	2297.5	2002.102	5915
2002.103	14425	2002.103	5282.5	2002.103	415	2002.103	3055	2002.103	7270
2002.104	16812.5	2002.104	6842.5	2002.104	832.5	2002.104	4047.5	2002.104	8762.5
2002.105	19380	2002.105	8620	2002.105	1250	2002.105	5090	2002.105	10462.5
2002.106	21582.5	2002.106	10497.5	2002.106	1720	2002.106	6282.5	2002.106	12185
2002.107	23320	2002.107	12527.5	2002.107	2285	2002.107	7757.5	2002.107	14022.5
2002.108	24742.5	2002.108	14565	2002.108	3042.5	2002.108	9360	2002.108	15660
2002.109	25650	2002.109	16337.5	2002.109	3847.5	2002.109	11182.5	2002.109	17117.5
2002.11	26182.5	2002.11	17687.5	2002.11	4677.5	2002.11	12890	2002.11	18297.5
2002.111	26232.5	2002.111	18740	2002.111	5460	2002.111	14480	2002.111	19097.5
2002.112	26022.5	2002.112	19287.5	2002.112	6085	2002.112	15647.5	2002.112	19617.5
2002.113	25565	2002.113	19460	2002.113	6572.5	2002.113	16617.5	2002.113	19810
2002.114	24910	2002.114	19382.5	2002.114	6820	2002.114	17127.5	2002.114	19797.5
2002.115	24080	2002.115	19107.5	2002.115	6962.5	2002.115	17477.5	2002.115	19585
2002.116	23022.5	2002.116	18587.5	2002.116	6972.5	2002.116	17482.5	2002.116	19140
2002.117	21895	2002.117	18015	2002.117	6857.5	2002.117	17280	2002.117	18545
2002.118	20842.5	2002.118	17422.5	2002.118	6657.5	2002.118	16937.5	2002.118	17827.5
2002.119	19905	2002.119	16732.5	2002.119	6440	2002.119	16542.5	2002.119	17142.5
2002.12	18757.5	2002.12	15997.5	2002.12	6155	2002.12	15982.5	2002.12	16565
2002.121	17725	2002.121	15185	2002.121	5850	2002.121	15350	2002.121	15827.5
2002.122	16932.5	2002.122	14440	2002.122	5547.5	2002.122	14762.5	2002.122	15072.5
2002.123	16157.5	2002.123	13717.5	2002.123	5230	2002.123	14235	2002.123	14435
2002.124	15392.5	2002.124	13137.5	2002.124	4932.5	2002.124	13715	2002.124	13797.5
2002.125	14895	2002.125	12552.5	2002.125	4615	2002.125	13177.5	2002.125	13260
2002.126	14390	2002.126	12022.5	2002.126	4327.5	2002.126	12727.5	2002.126	12770
2002.127	13840	2002.127	11567.5	2002.127	4062.5	2002.127	12222.5	2002.127	12325
2002.128	13422.5	2002.128	11035	2002.128	3782.5	2002.128	11707.5	2002.128	11927.5
2002.129	12925	2002.129	10540	2002.129	3512.5	2002.129	11195	2002.129	11517.5
2002.13	12450	2002.13	10015	2002.13	3227.5	2002.13	10720	2002.13	11047.5
2002.131	11982.5	2002.131	9627.5	2002.131	3045	2002.131	10237.5	2002.131	10700
2002.132	11502.5	2002.132	9195	2002.132	2790	2002.132	9782.5	2002.132	10285
2002.133	11087.5	2002.133	8737.5	2002.133	2575	2002.133	9330	2002.133	9845
2002.134	10512.5	2002.134	8357.5	2002.134	2400	2002.134	8877.5	2002.134	9492.5
2002.135	9780	2002.135	7930	2002.135	2190	2002.135	8560	2002.135	9087.5
2002.136	9020	2002.136	7475	2002.136	2057.5	2002.136	8122.5	2002.136	8670
2002.137	8567.5	2002.137	7050	2002.137	1870	2002.137	7705	2002.137	8195
2002.138	7885	2002.138	6660	2002.138	1732.5	2002.138	7387.5	2002.138	7735
2002.139	7422.5	2002.139	6280	2002.139	1672.5	2002.139	7100	2002.139	7415
2002.14	6805	2002.14	5857.5	2002.14	1532.5	2002.14	6875	2002.14	7057.5
2002.141	6285	2002.141	5475	2002.141	1382.5	2002.141	6590	2002.141	6665
2002.142	6010	2002.142	5155	2002.142	1257.5	2002.142	6257.5	2002.142	6392.5
2002.143	5680	2002.143	4835	2002.143	1167.5	2002.143	6095	2002.143	6015
2002.144	5475	2002.144	4545	2002.144	1072.5	2002.144	5905	2002.144	5802.5
2002.145	5282.5	2002.145	4337.5	2002.145	970	2002.145	5675	2002.145	5655
2002.146	5197.5	2002.146	4175	2002.146	875	2002.146	5452.5	2002.146	5462.5
2002.147	5025	2002.147	4057.5	2002.147	832.5	2002.147	5267.5	2002.147	5342.5
2002.148	5135	2002.148	3875	2002.148	737.5	2002.148	5052.5	2002.148	5222.5
2002.149	5050	2002.149	3807.5	2002.149	720	2002.149	4972.5	2002.149	5107.5
2002.15	4887.5	2002.15	3682.5	2002.15	650	2002.15	4905	2002.15	5025
2002.151	4827.5	2002.151	3577.5	2002.151	580	2002.151	4745	2002.151	4967.5
2002.152	4637.5	2002.152	3392.5	2002.152	485	2002.152	4430	2002.152	4717.5
2002.153	4382.5	2002.153	3232.5	2002.153	387.5	2002.153	4287.5	2002.153	4562.5
2002.154	4227.5	2002.154	3002.5	2002.154	342.5	2002.154	4105	2002.154	4357.5
2002.155	3765	2002.155	2835	2002.155	255	2002.155	3937.5	2002.155	4150
2002.156	3347.5	2002.156	2575	2002.156	202.5	2002.156	3767.5	2002.156	3930
2002.157	3007.5	2002.157	2325	2002.157	145	2002.157	3527.5	2002.157	3675
2002.158	2485	2002.158	2047.5	2002.158	120	2002.158	3337.5	2002.158	3342.5
2002.159	2067.5	2002.159	1792.5	2002.159	72.5	2002.159	3145	2002.159	3075
2002.16	1690	2002.16	1557.5	2002.16	20	2002.16	3012.5	2002.16	2827.5
2002.161	1347.5	2002.161	1247.5	2002.161	-37.5	2002.161	2732.5	2002.161	2502.5
2002.162	1202.5	2002.162	1027.5	2002.162	-125	2002.162	2627.5	2002.162	2247.5
2002.163	1037.5	2002.163	790	2002.163	-147.5	2002.163	2480	2002.163	2012.5
2002.164	830	2002.164	620	2002.164	-200	2002.164	2255	2002.164	1840
2002.165	775	2002.165	522.5	2002.165	-242.5	2002.165	2120	2002.165	1725
2002.166	702.5	2002.166	422.5	2002.166	-312.5	2002.166	1942.5	2002.166	1615
2002.167	662.5	2002.167	345	2002.167	-352.5	2002.167	1867.5	2002.167	1540
2002.168	825	2002.168	285	2002.168	-412.5	2002.168	1780	2002.168	1507.5
2002.169	655	2002.169	212.5	2002.169	-455	2002.169	1585	2002.169	1380
2002.17	632.5	2002.17	92.5	2002.17	-515	2002.17	1407.5	2002.17	1197.5
2002.171	612.5	2002.171	70	2002.171	-582.5	2002.171	1190	2002.171	1100
2002.172	275	2002.172	-92.5	2002.172	-667.5	2002.172	1027.5	2002.172	927.5
2002.173	257.5	2002.173	-142.5	2002.173	-705	2002.173	882.5	2002.173	830
2002.174	10	2002.174	-295	2002.174	-740	2002.174	717.5	2002.174	647.5
2002.175	-332.5	2002.175	-472.5	2002.175	-802.5	2002.175	500	2002.175	407.5
2002.176	-860	2002.176	-765	2002.176	-885	2002.176	297.5	2002.176	150
2002.177	-1122.5	2002.177	-940	2002.177	-917.5	2002.177	82.5	2002.177	-135
2002.178	-1670	2002.178	-1187.5	2002.178	-955	2002.178	-195	2002.178	-415
2002.179	-1810	2002.179	-1417.5	2002.179	-1007.5	2002.179	-372.5	2002.179	-670
2002.18	-2162.5	2002.18	-1665	2002.18	-1095	2002.18	-615	2002.18	-1057.5
2002.181	-2485	2002.181	-1925	2002.181	-1132.5	2002.181	-772.5	2002.181	-1342.5
2002.182	-2790	2002.182	-2190	2002.182	-1180	2002.182	-1000	2002.182	-1585
2002.183	-2947.5	2002.183	-2267.5	2002.183	-1242.5	2002.183	-1202.5	2002.183	-1637.5
2002.184	-3115	2002.184	-2517.5	2002.184	-1277.5	2002.184	-1382.5	2002.184	-1895
2002.185	-3157.5	2002.185	-2600	2002.185	-1362.5	2002.185	-1502.5	2002.185	-2032.5
2002.186	-3160	2002.186	-2637.5	2002.186	-1425	2002.186	-1655	2002.186	-2055
2002.187	-3112.5	2002.187	-2667.5	2002.187	-1475	2002.187	-1862.5	2002.187	-2182.5
2002.188	-3117.5	2002.188	-2735	2002.188	-1495	2002.188	-1865	2002.188	-2267.5
2002.189	-3007.5	2002.189	-2727.5	2002.189	-1580	2002.189	-2050	2002.189	-2272.5
2002.19	-3077.5	2002.19	-2767.5	2002.19	-1605	2002.19	-2132.5	2002.19	-2315
2002.191	-2925	2002.191	-2757.5	2002.191	-1637.5	2002.191	-2195	2002.191	-2372.5
2002.192	-2960	2002.192	-2817.5	2002.192	-1720	2002.192	-2375	2002.192	-2395
2002.193	-3162.5	2002.193	-2890	2002.193	-1750	2002.193	-2450	2002.193	-2457.5
2002.194	-3260	2002.194	-2932.5	2002.194	-1765	2002.194	-2545	2002.194	-2582.5
2002.195	-3497.5	2002.195	-3077.5	2002.195	-1792.5	2002.195	-2652.5	2002.195	-2707.5
2002.196	-3737.5	2002.196	-3240	2002.196	-1770	2002.196	-2877.5	2002.196	-2810
2002.197	-4032.5	2002.197	-3300	2002.197	-1815	2002.197	-2837.5	2002.197	-3040
2002.198	-4387.5	2002.198	-3477.5	2002.198	-1817.5	2002.198	-2992.5	2002.198	-3192.5
2002.199	-4740	2002.199	-3625	2002.199	-1850	2002.199	-3080	2002.199	-3427.5
2002.2	-4892.5	2002.2	-3842.5	2002.2	-1862.5	2002.2	-3225	2002.2	-3602.5
2002.201	-5085	2002.201	-3977.5	2002.201	-1887.5	2002.201	-3362.5	2002.201	-3785
2002.202	-5110	2002.202	-4120	2002.202	-1907.5	2002.202	-3407.5	2002.202	-3942.5
2002.203	-5175	2002.203	-4172.5	2002.203	-1900	2002.203	-3490	2002.203	-4045
2002.204	-5202.5	2002.204	-4145	2002.204	-1892.5	2002.204	-3472.5	2002.204	-4045
2002.205	-5072.5	2002.205	-4182.5	2002.205	-1887.5	2002.205	-3457.5	2002.205	-4047.5
2002.206	-5007.5	2002.206	-4062.5	2002.206	-1885	2002.206	-3490	2002.206	-3962.5
2002.207	-4815	2002.207	-4105	2002.207	-1882.5	2002.207	-3502.5	2002.207	-3875
2002.208	-4587.5	2002.208	-4012.5	2002.208	-1897.5	2002.208	-3580	2002.208	-3852.5
2002.209	-4610	2002.209	-3990	2002.209	-1897.5	2002.209	-3635	2002.209	-3827.5
2002.21	-4407.5	2002.21	-3890	2002.21	-1930	2002.21	-3565	2002.21	-3700
2002.211	-4170	2002.211	-3842.5	2002.211	-1920	2002.211	-3555	2002.211	-3707.5
2002.212	-4265	2002.212	-3887.5	2002.212	-1912.5	2002.212	-3630	2002.212	-3670
2002.213	-4227.5	2002.213	-3800	2002.213	-1915	2002.213	-3712.5	2002.213	-3720
2002.214	-4372.5	2002.214	-3840	2002.214	-1935	2002.214	-3770	2002.214	-3780
2002.215	-4642.5	2002.215	-3925	2002.215	-1957.5	2002.215	-3785	2002.215	-3832.5
2002.216	-4822.5	2002.216	-4055	2002.216	-1987.5	2002.216	-3777.5	2002.216	-3990
2002.217	-5040	2002.217	-4082.5	2002.217	-1982.5	2002.217	-3925	2002.217	-4092.5
2002.218	-5252.5	2002.218	-4210	2002.218	-1970	2002.218	-3950	2002.218	-4225
2002.219	-5425	2002.219	-4372.5	2002.219	-1955	2002.219	-3997.5	2002.219	-4342.5
2002.22	-5647.5	2002.22	-4447.5	2002.22	-1945	2002.22	-4047.5	2002.22	-4417.5
2002.221	-5777.5	2002.221	-4552.5	2002.221	-1947.5	2002.221	-4097.5	2002.221	-4585
2002.222	-5782.5	2002.222	-4677.5	2002.222	-1950	2002.222	-4150	2002.222	-4680
2002.223	-5937.5	2002.223	-4687.5	2002.223	-1915	2002.223	-4080	2002.223	-4640
2002.224	-5740	2002.224	-4670	2002.224	-1912.5	2002.224	-4045	2002.224	-4595
2002.225	-5595	2002.225	-4642.5	2002.225	-1902.5	2002.225	-4005	2002.225	-4592.5
2002.226	-5447.5	2002.226	-4592.5	2002.226	-1905	2002.226	-4072.5	2002.226	-4532.5
2002.227	-5302.5	2002.227	-4445	2002.227	-1880	2002.227	-4032.5	2002.227	-4455
2002.228	-4947.5	2002.228	-4385	2002.228	-1877.5	2002.228	-3995	2002.228	-4317.5
2002.229	-4787.5	2002.229	-4285	2002.229	-1880	2002.229	-3957.5	2002.229	-4260
2002.23	-4647.5	2002.23	-4212.5	2002.23	-1877.5	2002.23	-3935	2002.23	-4192.5
2002.231	-4652.5	2002.231	-4115	2002.231	-1867.5	2002.231	-3897.5	2002.231	-4067.5
2002.232	-4477.5	2002.232	-4017.5	2002.232	-1830	2002.232	-3870	2002.232	-4030
2002.233	-4505	2002.233	-3962.5	2002.233	-1817.5	2002.233	-3860	2002.233	-3990
2002.234	-4412.5	2002.234	-3900	2002.234	-1750	2002.234	-3797.5	2002.234	-3950
2002.235	-4630	2002.235	-3997.5	2002.235	-1782.5	2002.235	-3847.5	2002.235	-3975
2002.236	-4775	2002.236	-4025	2002.236	-1762.5	2002.236	-3862.5	2002.236	-4075
2002.237	-5005	2002.237	-4142.5	2002.237	-1757.5	2002.237	-3917.5	2002.237	-4092.5
2002.238	-5190	2002.238	-4257.5	2002.238	-1715	2002.238	-3952.5	2002.238	-4245
2002.239	-5280	2002.239	-4270	2002.239	-1727.5	2002.239	-3962.5	2002.239	-4312.5
2002.24	-5405	2002.24	-4357.5	2002.24	-1725	2002.24	-4022.5	2002.24	-4392.5
2002.241	-5667.5	2002.241	-4485	2002.241	-1722.5	2002.241	-4020	2002.241	-4457.5
2002.242	-5570	2002.242	-4475	2002.242	-1687.5	2002.242	-3987.5	2002.242	-4497.5
2002.243	-5670	2002.243	-4487.5	2002.243	-1682.5	2002.243	-3965	2002.243	-4450
2002.244	-5597.5	2002.244	-4452.5	2002.244	-1652.5	2002.244	-3962.5	2002.244	-4480
2002.245	-5385	2002.245	-4387.5	2002.245	-1600	2002.245	-3922.5	2002.245	-4415
2002.246	-5130	2002.246	-4270	2002.246	-1600	2002.246	-3877.5	2002.246	-4317.5
2002.247	-5025	2002.247	-4130	2002.247	-1540	2002.247	-3815	2002.247	-4190
2002.248	-4670	2002.248	-3975	2002.248	-1520	2002.248	-3697.5	2002.248	-4015
2002.249	-4485	2002.249	-3922.5	2002.249	-1497.5	2002.249	-3635	2002.249	-3897.5
2002.25	-4335	2002.25	-3822.5	2002.25	-1525	2002.25	-3672.5	2002.25	-3777.5
2002.251	-4195	2002.251	-3755	2002.251	-1512.5	2002.251	-3652.5	2002.251	-3687.5
2002.252	-4085	2002.252	-3662.5	2002.252	-1510	2002.252	-3675	2002.252	-3607.5
2002.253	-4082.5	2002.253	-3585	2002.253	-1510	2002.253	-3592.5	2002.253	-3582.5
2002.254	-4202.5	2002.254	-3632.5	2002.254	-1507.5	2002.254	-3622.5	2002.254	-3607.5
2002.255	-4380	2002.255	-3595	2002.255	-1510	2002.255	-3622.5	2002.255	-3657.5
2002.256	-4502.5	2002.256	-3682.5	2002.256	-1505	2002.256	-3675	2002.256	-3632.5
2002.257	-4570	2002.257	-3722.5	2002.257	-1500	2002.257	-3645	2002.257	-3775
2002.258	-4840	2002.258	-3827.5	2002.258	-1537.5	2002.258	-3712.5	2002.258	-3880
2002.259	-5047.5	2002.259	-3895	2002.259	-1427.5	2002.259	-3700	2002.259	-3930
2002.26	-5115	2002.26	-3915	2002.26	-1427.5	2002.26	-3610	2002.26	-3997.5
2002.261	-5157.5	2002.261	-4000	2002.261	-1432.5	2002.261	-3707.5	2002.261	-4092.5
2002.262	-5250	2002.262	-4077.5	2002.262	-1460	2002.262	-3690	2002.262	-4130
2002.263	-5182.5	2002.263	-4115	2002.263	-1447.5	2002.263	-3747.5	2002.263	-4180
2002.264	-5237.5	2002.264	-4190	2002.264	-1460	2002.264	-3642.5	2002.264	-4217.5
2002.265	-5115	2002.265	-4100	2002.265	-1397.5	2002.265	-3630	2002.265	-4127.5
2002.266	-4785	2002.266	-3955	2002.266	-1397.5	2002.266	-3565	2002.266	-3965
2002.267	-4605	2002.267	-3912.5	2002.267	-1385	2002.267	-3575	2002.267	-3932.5
2002.268	-4215	2002.268	-3805	2002.268	-1372.5	2002.268	-3410	2002.268	-3742.5
2002.269	-4197.5	2002.269	-3715	2002.269	-1362.5	2002.269	-3432.5	2002.269	-3725
2002.27	-3955	2002.27	-3600	2002.27	-1365	2002.27	-3447.5	2002.27	-3657.5
2002.271	-3767.5	2002.271	-3482.5	2002.271	-1342.5	2002.271	-3422.5	2002.271	-3505
2002.272	-3730	2002.272	-3365	2002.272	-1327.5	2002.272	-3380	2002.272	-3415
2002.273	-3627.5	2002.273	-3357.5	2002.273	-1295	2002.273	-3312.5	2002.273	-3352.5
2002.274	-3750	2002.274	-3302.5	2002.274	-1280	2002.274	-3285	2002.274	-3345
2002.275	-3747.5	2002.275	-3302.5	2002.275	-1255	2002.275	-3305	2002.275	-3282.5
2002.276	-4022.5	2002.276	-3350	2002.276	-1222.5	2002.276	-3307.5	2002.276	-3357.5
2002.277	-4247.5	2002.277	-3377.5	2002.277	-1232.5	2002.277	-3315	2002.277	-3412.5
2002.278	-4385	2002.278	-3447.5	2002.278	-1207.5	2002.278	-3327.5	2002.278	-3567.5
2002.279	-4507.5	2002.279	-3500	2002.279	-1202.5	2002.279	-3305	2002.279	-3607.5
2002.28	-4705	2002.28	-3530	2002.28	-1177.5	2002.28	-3295	2002.28	-3635
2002.281	-4737.5	2002.281	-3592.5	2002.281	-1177.5	2002.281	-3330	2002.281	-3720
2002.282	-4830	2002.282	-3625	2002.282	-1160	2002.282	-3350	2002.282	-3775
