E2(X)	E2(Y)	E3(X)	E3(Y)	E4(X)	E4(Y)	F1(X)	F1(Y)	F3(X)	F3(Y)
2000.746	-3872.5	2000.746	-3440	2000.746	-3407.5	2000.746	-4485	2000.746	-3490
2000.747	-3810	2000.747	-3332.5	2000.747	-3335	2000.747	-4405	2000.747	-3412.5
2000.748	-3560	2000.748	-3155	2000.748	-3217.5	2000.748	-4167.5	2000.748	-3235
2000.749	-3355	2000.749	-3080	2000.749	-2947.5	2000.749	-4165	2000.749	-3120
2000.75	-3285	2000.75	-2957.5	2000.75	-2862.5	2000.75	-3907.5	2000.75	-2975
2000.751	-3050	2000.751	-2795	2000.751	-2710	2000.751	-3882.5	2000.751	-2717.5
2000.752	-2867.5	2000.752	-2710	2000.752	-2645	2000.752	-3807.5	2000.752	-2620
2000.753	-2780	2000.753	-2630	2000.753	-2512.5	2000.753	-3577.5	2000.753	-2515
2000.754	-2612.5	2000.754	-2550	2000.754	-2432.5	2000.754	-3550	2000.754	-2385
2000.755	-2592.5	2000.755	-2497.5	2000.755	-2367.5	2000.755	-3525	2000.755	-2372.5
2000.756	-2607.5	2000.756	-2512.5	2000.756	-2330	2000.756	-3472.5	2000.756	-2345
2000.757	-2640	2000.757	-2460	2000.757	-2357.5	2000.757	-3397.5	2000.757	-2307.5
2000.758	-2697.5	2000.758	-2455	2000.758	-2442.5	2000.758	-3410	2000.758	-2355
2000.759	-2732.5	2000.759	-2407.5	2000.759	-2355	2000.759	-3500	2000.759	-2415
2000.76	-2690	2000.76	-2460	2000.76	-2420	2000.76	-3402.5	2000.76	-2342.5
2000.761	-2792.5	2000.761	-2415	2000.761	-2305	2000.761	-3352.5	2000.761	-2380
2000.762	-2717.5	2000.762	-2310	2000.762	-2382.5	2000.762	-3177.5	2000.762	-2367.5
2000.763	-2650	2000.763	-2302.5	2000.763	-2327.5	2000.763	-3290	2000.763	-2300
2000.764	-2655	2000.764	-2330	2000.764	-2275	2000.764	-3082.5	2000.764	-2282.5
2000.765	-2615	2000.765	-2322.5	2000.765	-2115	2000.765	-3020	2000.765	-2287.5
2000.766	-2490	2000.766	-2165	2000.766	-2072.5	2000.766	-2882.5	2000.766	-2200
2000.767	-2317.5	2000.767	-2125	2000.767	-2022.5	2000.767	-2835	2000.767	-2097.5
2000.768	-2182.5	2000.768	-2045	2000.768	-1807.5	2000.768	-2720	2000.768	-2002.5
2000.769	-2030	2000.769	-1985	2000.769	-1702.5	2000.769	-2667.5	2000.769	-1822.5
2000.77	-1902.5	2000.77	-1877.5	2000.77	-1665	2000.77	-2532.5	2000.77	-1700
2000.771	-1777.5	2000.771	-1825	2000.771	-1640	2000.771	-2570	2000.771	-1615
2000.772	-1752.5	2000.772	-1725	2000.772	-1637.5	2000.772	-2545	2000.772	-1607.5
2000.773	-1705	2000.773	-1807.5	2000.773	-1702.5	2000.773	-2512.5	2000.773	-1617.5
2000.774	-1797.5	2000.774	-1795	2000.774	-1637.5	2000.774	-2622.5	2000.774	-1547.5
2000.775	-2027.5	2000.775	-2120	2000.775	-1950	2000.775	-2855	2000.775	-1880
2000.776	-2940	2000.776	-3010	2000.776	-2892.5	2000.776	-3805	2000.776	-2802.5
2000.777	-3220	2000.777	-3402.5	2000.777	-3427.5	2000.777	-3977.5	2000.777	-3150
2000.778	-1997.5	2000.778	-2285	2000.778	-2650	2000.778	-2567.5	2000.778	-2042.5
2000.779	680	2000.779	-187.5	2000.779	-1840	2000.779	855	2000.779	-297.5
2000.78	5755	2000.78	4335	2000.78	1070	2000.78	6790	2000.78	3557.5
2000.781	13910	2000.781	12060	2000.781	7187.5	2000.781	16420	2000.781	11022.5
2000.782	23715	2000.782	22017.5	2000.782	16552.5	2000.782	27432.5	2000.782	21100
2000.783	31360	2000.783	30980	2000.783	27000	2000.783	34550	2000.783	30530
2000.784	38342.5	2000.784	40757.5	2000.784	38317.5	2000.784	39237.5	2000.784	39532.5
2000.785	46392.5	2000.785	51252.5	2000.785	49555	2000.785	44072.5	2000.785	49497.5
2000.786	53027.5	2000.786	58157.5	2000.786	56395	2000.786	49600	2000.786	56390
2000.787	59112.5	2000.787	63387.5	2000.787	59742.5	2000.787	53407.5	2000.787	62940
2000.788	66070	2000.788	71080	2000.788	62745	2000.788	42690	2000.788	75407.5
2000.789	-3697.5	2000.789	-18950	2000.789	-20650	2000.789	-10057.5	2000.789	-22712.5
2000.79	-9580	2000.79	-13547.5	2000.79	-12727.5	2000.79	-4922.5	2000.79	-11187.5
2000.791	-1732.5	2000.791	-5947.5	2000.791	-6632.5	2000.791	1655	2000.791	-2962.5
2000.792	2722.5	2000.792	-1420	2000.792	-2460	2000.792	7042.5	2000.792	1732.5
2000.793	5982.5	2000.793	1857.5	2000.793	717.5	2000.793	11512.5	2000.793	5187.5
2000.794	8072.5	2000.794	3570	2000.794	2570	2000.794	14437.5	2000.794	7262.5
2000.795	9312.5	2000.795	4395	2000.795	3175	2000.795	16615	2000.795	8440
2000.796	11385	2000.796	6037.5	2000.796	4615	2000.796	19377.5	2000.796	10497.5
2000.797	13652.5	2000.797	7902.5	2000.797	6227.5	2000.797	22257.5	2000.797	12632.5
2000.798	16067.5	2000.798	9890	2000.798	7977.5	2000.798	24765	2000.798	14980
2000.799	18527.5	2000.799	12225	2000.799	9927.5	2000.799	27212.5	2000.799	17412.5
2000.8	20817.5	2000.8	14590	2000.8	12005	2000.8	28640	2000.8	19625
2000.801	22742.5	2000.801	16995	2000.801	14055	2000.801	29520	2000.801	21582.5
2000.802	24115	2000.802	19045	2000.802	16137.5	2000.802	29855	2000.802	23045
2000.803	25082.5	2000.803	20827.5	2000.803	18105	2000.803	29632.5	2000.803	24012.5
2000.804	25375	2000.804	22062.5	2000.804	19527.5	2000.804	29187.5	2000.804	24385
2000.805	25362.5	2000.805	22767.5	2000.805	20545	2000.805	28577.5	2000.805	24325
2000.806	25052.5	2000.806	22947.5	2000.806	20997.5	2000.806	27822.5	2000.806	24140
2000.807	24565	2000.807	22847.5	2000.807	21047.5	2000.807	26960	2000.807	23632.5
2000.808	23962.5	2000.808	22532.5	2000.808	20935	2000.808	25985	2000.808	23057.5
2000.809	23212.5	2000.809	22097.5	2000.809	20550	2000.809	25167.5	2000.809	22385
2000.81	22395	2000.81	21332.5	2000.81	19865	2000.81	24037.5	2000.81	21555
2000.811	21557.5	2000.811	20612.5	2000.811	19312.5	2000.811	23075	2000.811	20712.5
2000.812	20587.5	2000.812	19745	2000.812	18387.5	2000.812	22037.5	2000.812	19825
2000.813	19700	2000.813	18872.5	2000.813	17530	2000.813	20902.5	2000.813	18850
2000.814	18865	2000.814	18057.5	2000.814	16637.5	2000.814	19972.5	2000.814	17990
2000.815	17975	2000.815	17195	2000.815	15875	2000.815	19047.5	2000.815	17110
2000.816	17020	2000.816	16327.5	2000.816	14967.5	2000.816	17972.5	2000.816	16127.5
2000.817	16142.5	2000.817	15460	2000.817	14172.5	2000.817	17070	2000.817	15262.5
2000.818	15235	2000.818	14627.5	2000.818	13295	2000.818	16105	2000.818	14332.5
2000.819	14442.5	2000.819	13812.5	2000.819	12572.5	2000.819	15417.5	2000.819	13482.5
2000.82	13662.5	2000.82	13012.5	2000.82	11937.5	2000.82	14552.5	2000.82	12675
2000.821	12950	2000.821	12230	2000.821	11157.5	2000.821	13762.5	2000.821	11947.5
2000.822	12167.5	2000.822	11615	2000.822	10517.5	2000.822	13077.5	2000.822	11207.5
2000.823	11525	2000.823	10845	2000.823	9970	2000.823	12300	2000.823	10577.5
2000.824	10935	2000.824	10220	2000.824	9390	2000.824	11657.5	2000.824	9962.5
2000.825	10397.5	2000.825	9680	2000.825	8885	2000.825	11250	2000.825	9402.5
2000.826	9955	2000.826	9147.5	2000.826	8402.5	2000.826	10702.5	2000.826	8877.5
2000.827	9575	2000.827	8672.5	2000.827	7957.5	2000.827	10267.5	2000.827	8405
2000.828	9160	2000.828	8170	2000.828	7580	2000.828	9797.5	2000.828	8060
2000.829	8832.5	2000.829	7742.5	2000.829	7217.5	2000.829	9337.5	2000.829	7670
2000.83	8537.5	2000.83	7350	2000.83	6935	2000.83	8917.5	2000.83	7255
2000.831	8262.5	2000.831	6947.5	2000.831	6642.5	2000.831	8602.5	2000.831	7002.5
2000.832	7897.5	2000.832	6550	2000.832	6300	2000.832	8085	2000.832	6597.5
2000.833	7552.5	2000.833	6145	2000.833	5847.5	2000.833	7762.5	2000.833	6222.5
2000.834	7342.5	2000.834	5855	2000.834	5532.5	2000.834	7477.5	2000.834	5922.5
2000.835	6945	2000.835	5537.5	2000.835	5267.5	2000.835	7005	2000.835	5585
2000.836	6525	2000.836	5127.5	2000.836	4907.5	2000.836	6637.5	2000.836	5232.5
2000.837	6145	2000.837	4862.5	2000.837	4580	2000.837	6275	2000.837	4810
2000.838	5797.5	2000.838	4412.5	2000.838	4182.5	2000.838	5940	2000.838	4427.5
2000.839	5410	2000.839	4037.5	2000.839	3837.5	2000.839	5682.5	2000.839	4130
2000.84	5070	2000.84	3812.5	2000.84	3587.5	2000.84	5375	2000.84	3772.5
2000.841	4712.5	2000.841	3517.5	2000.841	3180	2000.841	4980	2000.841	3440
2000.842	4505	2000.842	3245	2000.842	3065	2000.842	4747.5	2000.842	3192.5
2000.843	4215	2000.843	3000	2000.843	2872.5	2000.843	4607.5	2000.843	2865
2000.844	3942.5	2000.844	2680	2000.844	2602.5	2000.844	4252.5	2000.844	2582.5
2000.845	3692.5	2000.845	2435	2000.845	2420	2000.845	4017.5	2000.845	2335
2000.846	3555	2000.846	2207.5	2000.846	2277.5	2000.846	3790	2000.846	2175
2000.847	3392.5	2000.847	2082.5	2000.847	2232.5	2000.847	3787.5	2000.847	1970
2000.848	3380	2000.848	1877.5	2000.848	2120	2000.848	3545	2000.848	1930
2000.849	3252.5	2000.849	1737.5	2000.849	1995	2000.849	3480	2000.849	1825
2000.85	3027.5	2000.85	1517.5	2000.85	1867.5	2000.85	3257.5	2000.85	1712.5
2000.851	3030	2000.851	1432.5	2000.851	1740	2000.851	3145	2000.851	1540
2000.852	2832.5	2000.852	1215	2000.852	1595	2000.852	2760	2000.852	1415
2000.853	2645	2000.853	1067.5	2000.853	1435	2000.853	2722.5	2000.853	1180
2000.854	2475	2000.854	895	2000.854	1285	2000.854	2397.5	2000.854	1047.5
2000.855	2225	2000.855	780	2000.855	995	2000.855	2065	2000.855	790
2000.856	1940	2000.856	552.5	2000.856	867.5	2000.856	1867.5	2000.856	585
2000.857	1655	2000.857	422.5	2000.857	645	2000.857	1622.5	2000.857	332.5
2000.858	1282.5	2000.858	127.5	2000.858	287.5	2000.858	1315	2000.858	27.5
2000.859	972.5	2000.859	-77.5	2000.859	42.5	2000.859	1035	2000.859	-287.5
2000.86	720	2000.86	-262.5	2000.86	-170	2000.86	800	2000.86	-565
2000.861	417.5	2000.861	-420	2000.861	-415	2000.861	417.5	2000.861	-740
2000.862	105	2000.862	-635	2000.862	-555	2000.862	255	2000.862	-1065
2000.863	-115	2000.863	-820	2000.863	-682.5	2000.863	-15	2000.863	-1285
2000.864	-300	2000.864	-1055	2000.864	-875	2000.864	-317.5	2000.864	-1510
2000.865	-507.5	2000.865	-1210	2000.865	-1040	2000.865	-342.5	2000.865	-1695
2000.866	-685	2000.866	-1387.5	2000.866	-1140	2000.866	-595	2000.866	-1802.5
2000.867	-727.5	2000.867	-1425	2000.867	-1127.5	2000.867	-600	2000.867	-1930
2000.868	-775	2000.868	-1535	2000.868	-1237.5	2000.868	-790	2000.868	-1977.5
2000.869	-850	2000.869	-1592.5	2000.869	-1307.5	2000.869	-995	2000.869	-2035
2000.87	-890	2000.87	-1670	2000.87	-1417.5	2000.87	-1090	2000.87	-2197.5
2000.871	-1007.5	2000.871	-1820	2000.871	-1560	2000.871	-1272.5	2000.871	-2202.5
2000.872	-1155	2000.872	-1892.5	2000.872	-1640	2000.872	-1422.5	2000.872	-2327.5
2000.873	-1305	2000.873	-2035	2000.873	-1825	2000.873	-1562.5	2000.873	-2500
2000.874	-1435	2000.874	-2060	2000.874	-2025	2000.874	-1787.5	2000.874	-2577.5
2000.875	-1550	2000.875	-2295	2000.875	-2157.5	2000.875	-1890	2000.875	-2777.5
2000.876	-1737.5	2000.876	-2435	2000.876	-2270	2000.876	-2225	2000.876	-2940
2000.877	-1997.5	2000.877	-2567.5	2000.877	-2547.5	2000.877	-2482.5	2000.877	-3095
2000.878	-2230	2000.878	-2797.5	2000.878	-2730	2000.878	-2645	2000.878	-3345
2000.879	-2450	2000.879	-2927.5	2000.879	-2885	2000.879	-2757.5	2000.879	-3582.5
2000.88	-2690	2000.88	-2995	2000.88	-3000	2000.88	-2975	2000.88	-3677.5
2000.881	-2937.5	2000.881	-3187.5	2000.881	-3205	2000.881	-3195	2000.881	-3875
2000.882	-3120	2000.882	-3225	2000.882	-3300	2000.882	-3202.5	2000.882	-4095
2000.883	-3220	2000.883	-3427.5	2000.883	-3425	2000.883	-3500	2000.883	-4242.5
2000.884	-3397.5	2000.884	-3537.5	2000.884	-3562.5	2000.884	-3520	2000.884	-4337.5
2000.885	-3505	2000.885	-3617.5	2000.885	-3645	2000.885	-3670	2000.885	-4450
2000.886	-3487.5	2000.886	-3662.5	2000.886	-3615	2000.886	-3707.5	2000.886	-4442.5
2000.887	-3577.5	2000.887	-3687.5	2000.887	-3695	2000.887	-3790	2000.887	-4517.5
2000.888	-3590	2000.888	-3682.5	2000.888	-3717.5	2000.888	-3727.5	2000.888	-4512.5
2000.889	-3560	2000.889	-3740	2000.889	-3742.5	2000.889	-3822.5	2000.889	-4440
2000.89	-3577.5	2000.89	-3775	2000.89	-3780	2000.89	-3812.5	2000.89	-4465
2000.891	-3530	2000.891	-3782.5	2000.891	-3742.5	2000.891	-3757.5	2000.891	-4450
2000.892	-3530	2000.892	-3810	2000.892	-3785	2000.892	-3887.5	2000.892	-4382.5
2000.893	-3610	2000.893	-3912.5	2000.893	-3820	2000.893	-3970	2000.893	-4477.5
2000.894	-3590	2000.894	-3850	2000.894	-3912.5	2000.894	-3975	2000.894	-4475
2000.895	-3745	2000.895	-4000	2000.895	-3995	2000.895	-4132.5	2000.895	-4507.5
2000.896	-3860	2000.896	-4117.5	2000.896	-4177.5	2000.896	-4107.5	2000.896	-4625
2000.897	-4000	2000.897	-4145	2000.897	-4195	2000.897	-4185	2000.897	-4685
2000.898	-4142.5	2000.898	-4222.5	2000.898	-4300	2000.898	-4290	2000.898	-4850
2000.899	-4327.5	2000.899	-4257.5	2000.899	-4362.5	2000.899	-4390	2000.899	-4967.5
2000.9	-4472.5	2000.9	-4397.5	2000.9	-4425	2000.9	-4400	2000.9	-5012.5
2000.901	-4600	2000.901	-4485	2000.901	-4540	2000.901	-4607.5	2000.901	-5195
2000.902	-4632.5	2000.902	-4510	2000.902	-4570	2000.902	-4667.5	2000.902	-5220
2000.903	-4767.5	2000.903	-4570	2000.903	-4642.5	2000.903	-4715	2000.903	-5307.5
2000.904	-4842.5	2000.904	-4640	2000.904	-4632.5	2000.904	-4660	2000.904	-5377.5
2000.905	-4920	2000.905	-4675	2000.905	-4677.5	2000.905	-4695	2000.905	-5340
2000.906	-4797.5	2000.906	-4605	2000.906	-4572.5	2000.906	-4652.5	2000.906	-5290
2000.907	-4797.5	2000.907	-4622.5	2000.907	-4525	2000.907	-4525	2000.907	-5212.5
2000.908	-4667.5	2000.908	-4587.5	2000.908	-4475	2000.908	-4582.5	2000.908	-5155
2000.909	-4587.5	2000.909	-4512.5	2000.909	-4395	2000.909	-4540	2000.909	-5050
2000.91	-4542.5	2000.91	-4500	2000.91	-4287.5	2000.91	-4475	2000.91	-4957.5
2000.911	-4407.5	2000.911	-4457.5	2000.911	-4260	2000.911	-4397.5	2000.911	-4890
2000.912	-4325	2000.912	-4442.5	2000.912	-4212.5	2000.912	-4432.5	2000.912	-4810
2000.913	-4262.5	2000.913	-4385	2000.913	-4215	2000.913	-4400	2000.913	-4762.5
2000.914	-4327.5	2000.914	-4342.5	2000.914	-4220	2000.914	-4357.5	2000.914	-4795
2000.915	-4340	2000.915	-4357.5	2000.915	-4307.5	2000.915	-4380	2000.915	-4762.5
2000.916	-4382.5	2000.916	-4380	2000.916	-4345	2000.916	-4392.5	2000.916	-4875
2000.917	-4465	2000.917	-4357.5	2000.917	-4370	2000.917	-4440	2000.917	-4885
2000.918	-4615	2000.918	-4420	2000.918	-4457.5	2000.918	-4520	2000.918	-4930
2000.919	-4637.5	2000.919	-4527.5	2000.919	-4457.5	2000.919	-4482.5	2000.919	-5022.5
2000.92	-4735	2000.92	-4590	2000.92	-4585	2000.92	-4660	2000.92	-5102.5
2000.921	-4887.5	2000.921	-4607.5	2000.921	-4667.5	2000.921	-4642.5	2000.921	-5200
2000.922	-4942.5	2000.922	-4655	2000.922	-4672.5	2000.922	-4602.5	2000.922	-5232.5
2000.923	-4995	2000.923	-4592.5	2000.923	-4682.5	2000.923	-4635	2000.923	-5255
2000.924	-4957.5	2000.924	-4667.5	2000.924	-4757.5	2000.924	-4627.5	2000.924	-5252.5
2000.925	-4990	2000.925	-4625	2000.925	-4645	2000.925	-4670	2000.925	-5227.5
2000.926	-4927.5	2000.926	-4560	2000.926	-4532.5	2000.926	-4640	2000.926	-5207.5
2000.927	-4797.5	2000.927	-4510	2000.927	-4495	2000.927	-4627.5	2000.927	-5037.5
2000.928	-4617.5	2000.928	-4487.5	2000.928	-4327.5	2000.928	-4435	2000.928	-4960
2000.929	-4555	2000.929	-4422.5	2000.929	-4282.5	2000.929	-4567.5	2000.929	-4887.5
2000.93	-4437.5	2000.93	-4302.5	2000.93	-4205	2000.93	-4410	2000.93	-4785
2000.931	-4355	2000.931	-4335	2000.931	-4112.5	2000.931	-4350	2000.931	-4710
2000.932	-4260	2000.932	-4280	2000.932	-4045	2000.932	-4285	2000.932	-4647.5
2000.933	-4190	2000.933	-4182.5	2000.933	-4062.5	2000.933	-4317.5	2000.933	-4590
2000.934	-4202.5	2000.934	-4240	2000.934	-4047.5	2000.934	-4322.5	2000.934	-4540
2000.935	-4200	2000.935	-4187.5	2000.935	-3995	2000.935	-4297.5	2000.935	-4495
2000.936	-4345	2000.936	-4257.5	2000.936	-4175	2000.936	-4332.5	2000.936	-4600
2000.937	-4400	2000.937	-4370	2000.937	-4195	2000.937	-4332.5	2000.937	-4600
2000.938	-4540	2000.938	-4415	2000.938	-4295	2000.938	-4600	2000.938	-4742.5
2000.939	-4557.5	2000.939	-4307.5	2000.939	-4292.5	2000.939	-4465	2000.939	-4722.5
2000.94	-4632.5	2000.94	-4500	2000.94	-4290	2000.94	-4575	2000.94	-4867.5
2000.941	-4727.5	2000.941	-4487.5	2000.941	-4355	2000.941	-4587.5	2000.941	-4955
2000.942	-4812.5	2000.942	-4522.5	2000.942	-4440	2000.942	-4617.5	2000.942	-4990
2000.943	-4800	2000.943	-4540	2000.943	-4375	2000.943	-4507.5	2000.943	-4987.5
2000.944	-4832.5	2000.944	-4557.5	2000.944	-4412.5	2000.944	-4542.5	2000.944	-5037.5
2000.945	-4855	2000.945	-4452.5	2000.945	-4302.5	2000.945	-4592.5	2000.945	-4977.5
2000.946	-4625	2000.946	-4370	2000.946	-4225	2000.946	-4500	2000.946	-4907.5
2000.947	-4530	2000.947	-4310	2000.947	-4070	2000.947	-4495	2000.947	-4795
2000.948	-4480	2000.948	-4170	2000.948	-3980	2000.948	-4275	2000.948	-4660
2000.949	-4187.5	2000.949	-4050	2000.949	-3887.5	2000.949	-4295	2000.949	-4525
2000.95	-4135	2000.95	-4057.5	2000.95	-3735	2000.95	-4205	2000.95	-4405
2000.951	-4125	2000.951	-3992.5	2000.951	-3685	2000.951	-4107.5	2000.951	-4382.5
2000.952	-3950	2000.952	-3952.5	2000.952	-3630	2000.952	-4095	2000.952	-4345
2000.953	-3940	2000.953	-3945	2000.953	-3617.5	2000.953	-3982.5	2000.953	-4290
2000.954	-3915	2000.954	-3915	2000.954	-3632.5	2000.954	-4115	2000.954	-4245
2000.955	-3835	2000.955	-3877.5	2000.955	-3667.5	2000.955	-4020	2000.955	-4182.5
2000.956	-3942.5	2000.956	-3920	2000.956	-3567.5	2000.956	-4062.5	2000.956	-4267.5
2000.957	-4045	2000.957	-3970	2000.957	-3607.5	2000.957	-4127.5	2000.957	-4310
2000.958	-4095	2000.958	-4017.5	2000.958	-3807.5	2000.958	-4100	2000.958	-4410
2000.959	-4197.5	2000.959	-3972.5	2000.959	-3742.5	2000.959	-4225	2000.959	-4407.5
2000.96	-4252.5	2000.96	-4055	2000.96	-3707.5	2000.96	-4155	2000.96	-4487.5
2000.961	-4360	2000.961	-4102.5	2000.961	-3840	2000.961	-4210	2000.961	-4557.5
2000.962	-4352.5	2000.962	-4080	2000.962	-3792.5	2000.962	-4192.5	2000.962	-4607.5
2000.963	-4432.5	2000.963	-4092.5	2000.963	-3765	2000.963	-4220	2000.963	-4575
2000.964	-4397.5	2000.964	-4057.5	2000.964	-3742.5	2000.964	-4150	2000.964	-4552.5
2000.965	-4362.5	2000.965	-3990	2000.965	-3712.5	2000.965	-4157.5	2000.965	-4475
2000.966	-4247.5	2000.966	-3932.5	2000.966	-3525	2000.966	-4007.5	2000.966	-4375
2000.967	-4180	2000.967	-3875	2000.967	-3430	2000.967	-3890	2000.967	-4337.5
2000.968	-4030	2000.968	-3897.5	2000.968	-3347.5	2000.968	-3910	2000.968	-4240
2000.969	-3937.5	2000.969	-3825	2000.969	-3382.5	2000.969	-3885	2000.969	-4167.5
2000.97	-3832.5	2000.97	-3760	2000.97	-3232.5	2000.97	-3807.5	2000.97	-4130
2000.971	-3700	2000.971	-3722.5	2000.971	-3137.5	2000.971	-3752.5	2000.971	-3990
2000.972	-3630	2000.972	-3732.5	2000.972	-3165	2000.972	-3752.5	2000.972	-3922.5
2000.973	-3630	2000.973	-3677.5	2000.973	-3145	2000.973	-3815	2000.973	-3940
2000.974	-3592.5	2000.974	-3647.5	2000.974	-3182.5	2000.974	-3620	2000.974	-3880
2000.975	-3645	2000.975	-3632.5	2000.975	-3157.5	2000.975	-3727.5	2000.975	-3850
2000.976	-3690	2000.976	-3652.5	2000.976	-3102.5	2000.976	-3785	2000.976	-3915
2000.977	-3760	2000.977	-3712.5	2000.977	-3190	2000.977	-3785	2000.977	-3965
2000.978	-3832.5	2000.978	-3717.5	2000.978	-3275	2000.978	-3765	2000.978	-4055
2000.979	-3932.5	2000.979	-3787.5	2000.979	-3335	2000.979	-3825	2000.979	-4037.5
2000.98	-3967.5	2000.98	-3755	2000.98	-3335	2000.98	-3817.5	2000.98	-4117.5
2000.981	-4040	2000.981	-3797.5	2000.981	-3282.5	2000.981	-3787.5	2000.981	-4155
2000.982	-4130	2000.982	-3867.5	2000.982	-3250	2000.982	-3852.5	2000.982	-4245
2000.983	-4170	2000.983	-3947.5	2000.983	-3240	2000.983	-3817.5	2000.983	-4235
2000.984	-4200	2000.984	-4017.5	2000.984	-3232.5	2000.984	-3887.5	2000.984	-4240
2000.985	-4180	2000.985	-3982.5	2000.985	-3202.5	2000.985	-3780	2000.985	-4210
2000.986	-4075	2000.986	-3952.5	2000.986	-3115	2000.986	-3657.5	2000.986	-4142.5
2000.987	-3987.5	2000.987	-3945	2000.987	-2997.5	2000.987	-3677.5	2000.987	-4100
2000.988	-3867.5	2000.988	-3875	2000.988	-2877.5	2000.988	-3612.5	2000.988	-3992.5
2000.989	-3790	2000.989	-3920	2000.989	-2815	2000.989	-3520	2000.989	-3912.5
2000.99	-3677.5	2000.99	-3930	2000.99	-2780	2000.99	-3485	2000.99	-3842.5
2000.991	-3650	2000.991	-3860	2000.991	-2775	2000.991	-3487.5	2000.991	-3710
2000.992	-3590	2000.992	-3947.5	2000.992	-2627.5	2000.992	-3590	2000.992	-3597.5
2000.993	-3577.5	2000.993	-3882.5	2000.993	-2757.5	2000.993	-3442.5	2000.993	-3640
2000.994	-3552.5	2000.994	-3807.5	2000.994	-2665	2000.994	-3480	2000.994	-3600
2000.995	-3490	2000.995	-3897.5	2000.995	-2640	2000.995	-3387.5	2000.995	-3527.5
2000.996	-3695	2000.996	-3992.5	2000.996	-2652.5	2000.996	-3505	2000.996	-3630
2000.997	-3685	2000.997	-4035	2000.997	-2667.5	2000.997	-3590	2000.997	-3625
2000.998	-3850	2000.998	-4067.5	2000.998	-2720	2000.998	-3522.5	2000.998	-3680
2000.999	-3972.5	2000.999	-4065	2000.999	-2840	2000.999	-3657.5	2000.999	-3775
2001	-4150	2001	-4110	2001	-2902.5	2001	-3635	2001	-3900
2001.001	-4220	2001.001	-4095	2001.001	-2940	2001.001	-3735	2001.001	-3935
2001.002	-4302.5	2001.002	-4117.5	2001.002	-3007.5	2001.002	-3675	2001.002	-3955
2001.003	-4337.5	2001.003	-4077.5	2001.003	-2870	2001.003	-3727.5	2001.003	-4000
2001.004	-4347.5	2001.004	-3947.5	2001.004	-2890	2001.004	-3660	2001.004	-3915
2001.005	-4360	2001.005	-3905	2001.005	-2775	2001.005	-3682.5	2001.005	-3870
2001.006	-4280	2001.006	-3792.5	2001.006	-2717.5	2001.006	-3530	2001.006	-3832.5
2001.007	-4170	2001.007	-3700	2001.007	-2687.5	2001.007	-3432.5	2001.007	-3680
2001.008	-4117.5	2001.008	-3600	2001.008	-2545	2001.008	-3415	2001.008	-3570
2001.009	-3975	2001.009	-3440	2001.009	-2505	2001.009	-3455	2001.009	-3480
2001.01	-3957.5	2001.01	-3342.5	2001.01	-2440	2001.01	-3370	2001.01	-3405
2001.011	-3865	2001.011	-3240	2001.011	-2380	2001.011	-3387.5	2001.011	-3260
2001.012	-3862.5	2001.012	-3102.5	2001.012	-2365	2001.012	-3440	2001.012	-3182.5
2001.013	-3842.5	2001.013	-3057.5	2001.013	-2370	2001.013	-3327.5	2001.013	-3060
2001.014	-3727.5	2001.014	-2990	2001.014	-2355	2001.014	-3262.5	2001.014	-3060
2001.015	-3745	2001.015	-2927.5	2001.015	-2360	2001.015	-3285	2001.015	-3047.5
2001.016	-3872.5	2001.016	-2887.5	2001.016	-2390	2001.016	-3420	2001.016	-3060
2001.017	-3990	2001.017	-2860	2001.017	-2382.5	2001.017	-3507.5	2001.017	-3107.5
2001.018	-4122.5	2001.018	-2952.5	2001.018	-2490	2001.018	-3552.5	2001.018	-3167.5
2001.019	-4285	2001.019	-2920	2001.019	-2535	2001.019	-3675	2001.019	-3300
2001.02	-4312.5	2001.02	-2962.5	2001.02	-2615	2001.02	-3600	2001.02	-3262.5
2001.021	-4422.5	2001.021	-2965	2001.021	-2685	2001.021	-3690	2001.021	-3365
2001.022	-4482.5	2001.022	-2940	2001.022	-2685	2001.022	-3782.5	2001.022	-3437.5
2001.023	-4422.5	2001.023	-2995	2001.023	-2705	2001.023	-3905	2001.023	-3450
2001.024	-4502.5	2001.024	-2895	2001.024	-2652.5	2001.024	-3830	2001.024	-3352.5
2001.025	-4572.5	2001.025	-2900	2001.025	-2607.5	2001.025	-3750	2001.025	-3382.5
2001.026	-4462.5	2001.026	-2837.5	2001.026	-2610	2001.026	-3632.5	2001.026	-3372.5
2001.027	-4327.5	2001.027	-2740	2001.027	-2555	2001.027	-3670	2001.027	-3250
2001.028	-4160	2001.028	-2697.5	2001.028	-2437.5	2001.028	-3680	2001.028	-3195
2001.029	-4097.5	2001.029	-2632.5	2001.029	-2362.5	2001.029	-3625	2001.029	-3092.5
2001.03	-4057.5	2001.03	-2550	2001.03	-2247.5	2001.03	-3567.5	2001.03	-3010
2001.031	-3890	2001.031	-2495	2001.031	-2217.5	2001.031	-3510	2001.031	-2897.5
2001.032	-3835	2001.032	-2410	2001.032	-2145	2001.032	-3450	2001.032	-2810
2001.033	-3772.5	2001.033	-2370	2001.033	-2037.5	2001.033	-3490	2001.033	-2775
2001.034	-3730	2001.034	-2297.5	2001.034	-2055	2001.034	-3387.5	2001.034	-2737.5
2001.035	-3675	2001.035	-2240	2001.035	-2032.5	2001.035	-3447.5	2001.035	-2697.5
2001.036	-3767.5	2001.036	-2250	2001.036	-2105	2001.036	-3445	2001.036	-2740
2001.037	-3807.5	2001.037	-2260	2001.037	-2230	2001.037	-3575	2001.037	-2762.5
2001.038	-3925	2001.038	-2360	2001.038	-2302.5	2001.038	-3612.5	2001.038	-2907.5
2001.039	-4042.5	2001.039	-2482.5	2001.039	-2287.5	2001.039	-3737.5	2001.039	-3035
2001.04	-4105	2001.04	-2625	2001.04	-2382.5	2001.04	-3897.5	2001.04	-3095
2001.041	-4192.5	2001.041	-2535	2001.041	-2465	2001.041	-3997.5	2001.041	-3165
2001.042	-4207.5	2001.042	-2582.5	2001.042	-2487.5	2001.042	-3945	2001.042	-3210
2001.043	-4267.5	2001.043	-2605	2001.043	-2457.5	2001.043	-4045	2001.043	-3212.5
2001.044	-4190	2001.044	-2530	2001.044	-2482.5	2001.044	-3832.5	2001.044	-3247.5
2001.045	-4185	2001.045	-2557.5	2001.045	-2480	2001.045	-3857.5	2001.045	-3257.5
2001.046	-4052.5	2001.046	-2475	2001.046	-2372.5	2001.046	-3925	2001.046	-3125
2001.047	-3995	2001.047	-2397.5	2001.047	-2362.5	2001.047	-3812.5	2001.047	-3102.5
2001.048	-3922.5	2001.048	-2360	2001.048	-2232.5	2001.048	-3737.5	2001.048	-2905
2001.049	-3670	2001.049	-2280	2001.049	-2082.5	2001.049	-3655	2001.049	-2830
2001.05	-3622.5	2001.05	-2260	2001.05	-2060	2001.05	-3602.5	2001.05	-2730
2001.051	-3460	2001.051	-2152.5	2001.051	-1947.5	2001.051	-3502.5	2001.051	-2647.5
2001.052	-3465	2001.052	-2115	2001.052	-1965	2001.052	-3570	2001.052	-2597.5
2001.053	-3310	2001.053	-2147.5	2001.053	-1887.5	2001.053	-3465	2001.053	-2482.5
2001.054	-3315	2001.054	-2147.5	2001.054	-1902.5	2001.054	-3442.5	2001.054	-2440
2001.055	-3317.5	2001.055	-2100	2001.055	-1922.5	2001.055	-3415	2001.055	-2425
2001.056	-3432.5	2001.056	-2130	2001.056	-2007.5	2001.056	-3500	2001.056	-2520
2001.057	-3467.5	2001.057	-2192.5	2001.057	-2052.5	2001.057	-3487.5	2001.057	-2497.5
2001.058	-3465	2001.058	-2222.5	2001.058	-2072.5	2001.058	-3607.5	2001.058	-2570
2001.059	-3605	2001.059	-2315	2001.059	-2142.5	2001.059	-3672.5	2001.059	-2692.5
2001.06	-3645	2001.06	-2350	2001.06	-2242.5	2001.06	-3690	2001.06	-2775
2001.061	-3745	2001.061	-2372.5	2001.061	-2272.5	2001.061	-3692.5	2001.061	-2827.5
2001.062	-3752.5	2001.062	-2350	2001.062	-2322.5	2001.062	-3620	2001.062	-2792.5
2001.063	-3822.5	2001.063	-2410	2001.063	-2222.5	2001.063	-3755	2001.063	-2942.5
2001.064	-3820	2001.064	-2410	2001.064	-2265	2001.064	-3700	2001.064	-2897.5
2001.065	-3692.5	2001.065	-2317.5	2001.065	-2150	2001.065	-3592.5	2001.065	-2787.5
2001.066	-3572.5	2001.066	-2230	2001.066	-2082.5	2001.066	-3505	2001.066	-2712.5
2001.067	-3467.5	2001.067	-2170	2001.067	-2027.5	2001.067	-3415	2001.067	-2662.5
2001.068	-3370	2001.068	-2135	2001.068	-1885	2001.068	-3267.5	2001.068	-2595
2001.069	-3255	2001.069	-2067.5	2001.069	-1822.5	2001.069	-3287.5	2001.069	-2482.5
2001.07	-3170	2001.07	-2097.5	2001.07	-1852.5	2001.07	-3237.5	2001.07	-2355
2001.071	-3100	2001.071	-2007.5	2001.071	-1765	2001.071	-3267.5	2001.071	-2305
2001.072	-2970	2001.072	-2057.5	2001.072	-1750	2001.072	-3225	2001.072	-2227.5
2001.073	-2952.5	2001.073	-1982.5	2001.073	-1670	2001.073	-3142.5	2001.073	-2170
2001.074	-2910	2001.074	-1947.5	2001.074	-1760	2001.074	-3130	2001.074	-2165
2001.075	-2922.5	2001.075	-1960	2001.075	-1690	2001.075	-3140	2001.075	-2110
2001.076	-2915	2001.076	-1995	2001.076	-1787.5	2001.076	-3185	2001.076	-2167.5
2001.077	-2995	2001.077	-1967.5	2001.077	-1817.5	2001.077	-3127.5	2001.077	-2180
2001.078	-3070	2001.078	-2030	2001.078	-1870	2001.078	-3275	2001.078	-2280
2001.079	-3177.5	2001.079	-2080	2001.079	-1922.5	2001.079	-3282.5	2001.079	-2385
2001.08	-3215	2001.08	-2135	2001.08	-1907.5	2001.08	-3327.5	2001.08	-2477.5
2001.081	-3360	2001.081	-2207.5	2001.081	-2075	2001.081	-3397.5	2001.081	-2470
2001.082	-3307.5	2001.082	-2182.5	2001.082	-2012.5	2001.082	-3332.5	2001.082	-2507.5
2001.083	-3345	2001.083	-2190	2001.083	-2007.5	2001.083	-3352.5	2001.083	-2545
2001.084	-3290	2001.084	-2155	2001.084	-2050	2001.084	-3357.5	2001.084	-2532.5
2001.085	-3300	2001.085	-2160	2001.085	-2102.5	2001.085	-3350	2001.085	-2500
2001.086	-3185	2001.086	-2135	2001.086	-1995	2001.086	-3175	2001.086	-2442.5
2001.087	-3055	2001.087	-2007.5	2001.087	-1842.5	2001.087	-3137.5	2001.087	-2355
2001.088	-2900	2001.088	-2017.5	2001.088	-1752.5	2001.088	-3005	2001.088	-2282.5
2001.089	-2757.5	2001.089	-1875	2001.089	-1517.5	2001.089	-2937.5	2001.089	-2127.5
2001.09	-2685	2001.09	-1807.5	2001.09	-1587.5	2001.09	-2975	2001.09	-2077.5
2001.091	-2562.5	2001.091	-1847.5	2001.091	-1567.5	2001.091	-2875	2001.091	-1955
2001.092	-2542.5	2001.092	-1827.5	2001.092	-1545	2001.092	-2932.5	2001.092	-1930
2001.093	-2507.5	2001.093	-1795	2001.093	-1417.5	2001.093	-2832.5	2001.093	-1942.5
2001.094	-2387.5	2001.094	-1707.5	2001.094	-1540	2001.094	-2850	2001.094	-1880
2001.095	-2455	2001.095	-1832.5	2001.095	-1462.5	2001.095	-2905	2001.095	-1862.5
2001.096	-2492.5	2001.096	-1862.5	2001.096	-1615	2001.096	-2855	2001.096	-1882.5
2001.097	-2605	2001.097	-1882.5	2001.097	-1640	2001.097	-2882.5	2001.097	-1957.5
2001.098	-2707.5	2001.098	-1907.5	2001.098	-1690	2001.098	-3012.5	2001.098	-2015
2001.099	-2760	2001.099	-1952.5	2001.099	-1717.5	2001.099	-2997.5	2001.099	-2067.5
2001.1	-2810	2001.1	-1960	2001.1	-1705	2001.1	-3045	2001.1	-2120
2001.101	-2877.5	2001.101	-1952.5	2001.101	-1810	2001.101	-3092.5	2001.101	-2212.5
2001.102	-2965	2001.102	-1970	2001.102	-1827.5	2001.102	-3122.5	2001.102	-2282.5
2001.103	-2942.5	2001.103	-2000	2001.103	-1840	2001.103	-3027.5	2001.103	-2282.5
2001.104	-2942.5	2001.104	-2022.5	2001.104	-1825	2001.104	-3172.5	2001.104	-2277.5
2001.105	-2955	2001.105	-1972.5	2001.105	-1695	2001.105	-3012.5	2001.105	-2220
2001.106	-2762.5	2001.106	-1850	2001.106	-1572.5	2001.106	-2940	2001.106	-2090
2001.107	-2732.5	2001.107	-1910	2001.107	-1532.5	2001.107	-2837.5	2001.107	-2022.5
2001.108	-2527.5	2001.108	-1775	2001.108	-1407.5	2001.108	-2692.5	2001.108	-1917.5
2001.109	-2420	2001.109	-1657.5	2001.109	-1362.5	2001.109	-2775	2001.109	-1805
2001.11	-2242.5	2001.11	-1675	2001.11	-1215	2001.11	-2497.5	2001.11	-1727.5
2001.111	-2095	2001.111	-1590	2001.111	-1150	2001.111	-2615	2001.111	-1640
2001.112	-2027.5	2001.112	-1607.5	2001.112	-1205	2001.112	-2515	2001.112	-1537.5
2001.113	-1935	2001.113	-1540	2001.113	-1092.5	2001.113	-2472.5	2001.113	-1500
2001.114	-2032.5	2001.114	-1540	2001.114	-1160	2001.114	-2567.5	2001.114	-1510
2001.115	-2027.5	2001.115	-1547.5	2001.115	-1267.5	2001.115	-2567.5	2001.115	-1557.5
2001.116	-2075	2001.116	-1637.5	2001.116	-1252.5	2001.116	-2527.5	2001.116	-1565
2001.117	-2147.5	2001.117	-1700	2001.117	-1415	2001.117	-2647.5	2001.117	-1650
2001.118	-2260	2001.118	-1697.5	2001.118	-1442.5	2001.118	-2725	2001.118	-1717.5
2001.119	-2285	2001.119	-1730	2001.119	-1400	2001.119	-2630	2001.119	-1765
2001.12	-2352.5	2001.12	-1767.5	2001.12	-1435	2001.12	-2735	2001.12	-1845
2001.121	-2437.5	2001.121	-1900	2001.121	-1577.5	2001.121	-2842.5	2001.121	-1932.5
2001.122	-2527.5	2001.122	-1842.5	2001.122	-1650	2001.122	-2825	2001.122	-2025
2001.123	-2567.5	2001.123	-1827.5	2001.123	-1582.5	2001.123	-2812.5	2001.123	-1932.5
2001.124	-2517.5	2001.124	-1782.5	2001.124	-1545	2001.124	-2727.5	2001.124	-1965
2001.125	-2535	2001.125	-1765	2001.125	-1517.5	2001.125	-2665	2001.125	-1967.5
2001.126	-2450	2001.126	-1715	2001.126	-1482.5	2001.126	-2702.5	2001.126	-1932.5
2001.127	-2307.5	2001.127	-1637.5	2001.127	-1392.5	2001.127	-2735	2001.127	-1815
2001.128	-2190	2001.128	-1565	2001.128	-1307.5	2001.128	-2497.5	2001.128	-1665
2001.129	-2067.5	2001.129	-1540	2001.129	-1250	2001.129	-2457.5	2001.129	-1612.5
2001.13	-1995	2001.13	-1507.5	2001.13	-1117.5	2001.13	-2460	2001.13	-1575
2001.131	-1900	2001.131	-1492.5	2001.131	-1095	2001.131	-2452.5	2001.131	-1462.5
2001.132	-1837.5	2001.132	-1400	2001.132	-1080	2001.132	-2502.5	2001.132	-1347.5
2001.133	-1757.5	2001.133	-1427.5	2001.133	-1100	2001.133	-2340	2001.133	-1362.5
2001.134	-1730	2001.134	-1452.5	2001.134	-1000	2001.134	-2402.5	2001.134	-1250
2001.135	-1830	2001.135	-1430	2001.135	-1102.5	2001.135	-2550	2001.135	-1270
2001.136	-1820	2001.136	-1490	2001.136	-1182.5	2001.136	-2582.5	2001.136	-1347.5
2001.137	-1865	2001.137	-1470	2001.137	-1260	2001.137	-2640	2001.137	-1372.5
2001.138	-2015	2001.138	-1537.5	2001.138	-1377.5	2001.138	-2600	2001.138	-1467.5
2001.139	-2090	2001.139	-1582.5	2001.139	-1430	2001.139	-2742.5	2001.139	-1560
2001.14	-2180	2001.14	-1597.5	2001.14	-1437.5	2001.14	-2707.5	2001.14	-1610
2001.141	-2267.5	2001.141	-1627.5	2001.141	-1452.5	2001.141	-2730	2001.141	-1627.5
2001.142	-2262.5	2001.142	-1662.5	2001.142	-1415	2001.142	-2750	2001.142	-1700
2001.143	-2297.5	2001.143	-1650	2001.143	-1450	2001.143	-2760	2001.143	-1735
2001.144	-2282.5	2001.144	-1695	2001.144	-1500	2001.144	-2772.5	2001.144	-1750
2001.145	-2230	2001.145	-1695	2001.145	-1292.5	2001.145	-2740	2001.145	-1667.5
2001.146	-2232.5	2001.146	-1667.5	2001.146	-1355	2001.146	-2667.5	2001.146	-1737.5
2001.147	-2317.5	2001.147	-1850	2001.147	-1517.5	2001.147	-2827.5	2001.147	-1857.5
2001.148	-2372.5	2001.148	-1912.5	2001.148	-1590	2001.148	-2877.5	2001.148	-1897.5
2001.149	-2307.5	2001.149	-1885	2001.149	-1662.5	2001.149	-3025	2001.149	-1870
2001.15	-2515	2001.15	-2170	2001.15	-1882.5	2001.15	-3215	2001.15	-2082.5
2001.151	-2632.5	2001.151	-2385	2001.151	-2117.5	2001.151	-3397.5	2001.151	-2262.5
2001.152	-2735	2001.152	-2475	2001.152	-2282.5	2001.152	-3607.5	2001.152	-2317.5
2001.153	-2420	2001.153	-2230	2001.153	-1895	2001.153	-3257.5	2001.153	-2067.5
2001.154	-1960	2001.154	-1727.5	2001.154	-1440	2001.154	-2875	2001.154	-1510
2001.155	-1647.5	2001.155	-1260	2001.155	-1110	2001.155	-2400	2001.155	-1087.5
2001.156	-1362.5	2001.156	-1015	2001.156	-790	2001.156	-2115	2001.156	-777.5
2001.157	-990	2001.157	-645	2001.157	-382.5	2001.157	-1787.5	2001.157	-482.5
2001.158	-725	2001.158	-322.5	2001.158	-17.5	2001.158	-1365	2001.158	-105
2001.159	-875	2001.159	-377.5	2001.159	-177.5	2001.159	-1430	2001.159	-260
2001.16	-1210	2001.16	-670	2001.16	-490	2001.16	-1742.5	2001.16	-625
2001.161	-1210	2001.161	-730	2001.161	-500	2001.161	-1785	2001.161	-692.5
2001.162	-1687.5	2001.162	-1210	2001.162	-1047.5	2001.162	-2175	2001.162	-1195
2001.163	-2692.5	2001.163	-2245	2001.163	-2072.5	2001.163	-3235	2001.163	-2310
2001.164	-3182.5	2001.164	-2755	2001.164	-2462.5	2001.164	-3765	2001.164	-2822.5
2001.165	-2087.5	2001.165	-1557.5	2001.165	-1312.5	2001.165	-2625	2001.165	-1640
2001.166	-1937.5	2001.166	-1470	2001.166	-1250	2001.166	-2372.5	2001.166	-1595
2001.167	-1917.5	2001.167	-1535	2001.167	-1200	2001.167	-2447.5	2001.167	-1502.5
2001.168	-1892.5	2001.168	-1500	2001.168	-1167.5	2001.168	-2475	2001.168	-1475
2001.169	-1672.5	2001.169	-1422.5	2001.169	-1102.5	2001.169	-2280	2001.169	-1292.5
2001.17	-1825	2001.17	-1702.5	2001.17	-1397.5	2001.17	-2590	2001.17	-1580
2001.171	-1900	2001.171	-1765	2001.171	-1412.5	2001.171	-2652.5	2001.171	-1667.5
2001.172	-1812.5	2001.172	-1760	2001.172	-1495	2001.172	-2837.5	2001.172	-1667.5
2001.173	-2077.5	2001.173	-2100	2001.173	-1802.5	2001.173	-3007.5	2001.173	-1890
2001.174	-2742.5	2001.174	-2755	2001.174	-2332.5	2001.174	-3727.5	2001.174	-2522.5
2001.175	-2972.5	2001.175	-3035	2001.175	-2767.5	2001.175	-3960	2001.175	-2882.5
2001.176	-3315	2001.176	-3440	2001.176	-3057.5	2001.176	-4440	2001.176	-3217.5
2001.177	-3565	2001.177	-3652.5	2001.177	-3430	2001.177	-4632.5	2001.177	-3390
2001.178	-3657.5	2001.178	-3635	2001.178	-3412.5	2001.178	-4655	2001.178	-3495
2001.179	-3727.5	2001.179	-3695	2001.179	-3427.5	2001.179	-4717.5	2001.179	-3495
2001.18	-3767.5	2001.18	-3630	2001.18	-3442.5	2001.18	-4717.5	2001.18	-3547.5
2001.181	-3847.5	2001.181	-3630	2001.181	-3392.5	2001.181	-4752.5	2001.181	-3575
2001.182	-3740	2001.182	-3535	2001.182	-3372.5	2001.182	-4520	2001.182	-3515
2001.183	-3707.5	2001.183	-3485	2001.183	-3325	2001.183	-4570	2001.183	-3447.5
2001.184	-3750	2001.184	-3455	2001.184	-3270	2001.184	-4397.5	2001.184	-3370
2001.185	-3587.5	2001.185	-3335	2001.185	-3237.5	2001.185	-4195	2001.185	-3292.5
2001.186	-3412.5	2001.186	-3130	2001.186	-3012.5	2001.186	-4140	2001.186	-3110
2001.187	-3177.5	2001.187	-3037.5	2001.187	-2810	2001.187	-3872.5	2001.187	-2950
2001.188	-3022.5	2001.188	-2950	2001.188	-2722.5	2001.188	-3792.5	2001.188	-2720
2001.189	-2790	2001.189	-2760	2001.189	-2500	2001.189	-3530	2001.189	-2542.5
2001.19	-2695	2001.19	-2725	2001.19	-2507.5	2001.19	-3575	2001.19	-2450
2001.191	-2495	2001.191	-2560	2001.191	-2297.5	2001.191	-3482.5	2001.191	-2320
2001.192	-2390	2001.192	-2545	2001.192	-2162.5	2001.192	-3265	2001.192	-2202.5
2001.193	-2330	2001.193	-2447.5	2001.193	-2205	2001.193	-3280	2001.193	-2150
2001.194	-2187.5	2001.194	-2380	2001.194	-2050	2001.194	-3132.5	2001.194	-2065
2001.195	-2152.5	2001.195	-2350	2001.195	-2032.5	2001.195	-3085	2001.195	-1947.5
2001.196	-2202.5	2001.196	-2277.5	2001.196	-2005	2001.196	-3055	2001.196	-1957.5
2001.197	-2162.5	2001.197	-2220	2001.197	-2012.5	2001.197	-3030	2001.197	-1922.5
2001.198	-2202.5	2001.198	-2170	2001.198	-1960	2001.198	-2917.5	2001.198	-1955
2001.199	-2297.5	2001.199	-2255	2001.199	-2085	2001.199	-3090	2001.199	-1992.5
2001.2	-2347.5	2001.2	-2312.5	2001.2	-2110	2001.2	-3045	2001.2	-2102.5
2001.201	-2445	2001.201	-2335	2001.201	-2150	2001.201	-3027.5	2001.201	-2102.5
2001.202	-2412.5	2001.202	-2307.5	2001.202	-2092.5	2001.202	-3025	2001.202	-2122.5
2001.203	-2410	2001.203	-2250	2001.203	-2075	2001.203	-2972.5	2001.203	-2042.5
2001.204	-2367.5	2001.204	-2190	2001.204	-2090	2001.204	-2905	2001.204	-2080
2001.205	-2332.5	2001.205	-2127.5	2001.205	-1955	2001.205	-2810	2001.205	-2015
2001.206	-2127.5	2001.206	-2055	2001.206	-1887.5	2001.206	-2747.5	2001.206	-1942.5
2001.207	-2012.5	2001.207	-2060	2001.207	-1840	2001.207	-2622.5	2001.207	-1897.5
2001.208	-1940	2001.208	-2007.5	2001.208	-1810	2001.208	-2692.5	2001.208	-1855
2001.209	-1967.5	2001.209	-2010	2001.209	-1800	2001.209	-2557.5	2001.209	-1792.5
2001.21	-2365	2001.21	-2560	2001.21	-2297.5	2001.21	-3150	2001.21	-2330
2001.211	-3002.5	2001.211	-3262.5	2001.211	-2980	2001.211	-3875	2001.211	-2950
2001.212	-2612.5	2001.212	-3065	2001.212	-2957.5	2001.212	-3457.5	2001.212	-2585
2001.213	-490	2001.213	-1317.5	2001.213	-1985	2001.213	-775	2001.213	-1072.5
2001.214	3317.5	2001.214	1835	2001.214	-345	2001.214	3532.5	2001.214	1532.5
2001.215	9750	2001.215	7637.5	2001.215	3757.5	2001.215	11070	2001.215	6877.5
2001.216	19207.5	2001.216	16827.5	2001.216	11582.5	2001.216	21812.5	2001.216	16067.5
2001.217	27950	2001.217	26235	2001.217	21522.5	2001.217	31190	2001.217	25762.5
2001.218	35172.5	2001.218	35632.5	2001.218	32535	2001.218	37005	2001.218	35127.5
2001.219	42212.5	2001.219	45695	2001.219	43832.5	2001.219	41055	2001.219	44407.5
2001.22	49422.5	2001.22	54275	2001.22	53117.5	2001.22	46275	2001.22	52770
2001.221	56505	2001.221	61027.5	2001.221	58747.5	2001.221	52857.5	2001.221	59797.5
2001.222	62837.5	2001.222	66600	2001.222	59160	2001.222	54975	2001.222	68090
2001.223	62172.5	2001.223	46667.5	2001.223	31840	2001.223	-2670	2001.223	50287.5
2001.224	-15935	2001.224	-19845	2001.224	-17825	2001.224	-9480	2001.224	-19707.5
2001.225	-5855	2001.225	-9747.5	2001.225	-9532.5	2001.225	-2215	2001.225	-6957.5
2001.226	-277.5	2001.226	-4287.5	2001.226	-4882.5	2001.226	3687.5	2001.226	-1267.5
2001.227	3840	2001.227	-112.5	2001.227	-857.5	2001.227	9017.5	2001.227	3115
2001.228	6697.5	2001.228	2542.5	2001.228	1710	2001.228	12907.5	2001.228	6047.5
2001.229	8390	2001.229	3790	2001.229	2912.5	2001.229	15427.5	2001.229	7607.5
2001.23	10177.5	2001.23	5082.5	2001.23	3980	2001.23	17895	2001.23	9265
2001.231	12517.5	2001.231	6837.5	2001.231	5632.5	2001.231	20935	2001.231	11550
2001.232	14955	2001.232	8787.5	2001.232	7290	2001.232	23665	2001.232	13870
2001.233	17622.5	2001.233	11067.5	2001.233	9245	2001.233	26322.5	2001.233	16482.5
2001.234	20205	2001.234	13492.5	2001.234	11340	2001.234	28322.5	2001.234	18950
2001.235	22377.5	2001.235	15837.5	2001.235	13442.5	2001.235	29605	2001.235	21082.5
2001.236	24112.5	2001.236	18147.5	2001.236	15470	2001.236	30175	2001.236	22820
2001.237	25187.5	2001.237	20195	2001.237	17455	2001.237	30297.5	2001.237	23970
2001.238	25785	2001.238	21582.5	2001.238	19182.5	2001.238	29870	2001.238	24597.5
2001.239	25757.5	2001.239	22437.5	2001.239	20157.5	2001.239	29197.5	2001.239	24712.5
2001.24	25457.5	2001.24	22755	2001.24	20782.5	2001.24	28367.5	2001.24	24420
2001.241	24870	2001.241	22815	2001.241	20885	2001.241	27377.5	2001.241	23935
2001.242	24130	2001.242	22537.5	2001.242	20805	2001.242	26407.5	2001.242	23275
2001.243	23300	2001.243	22060	2001.243	20372.5	2001.243	25505	2001.243	22505
2001.244	22417.5	2001.244	21455	2001.244	19850	2001.244	24467.5	2001.244	21742.5
2001.245	21487.5	2001.245	20720	2001.245	19230	2001.245	23400	2001.245	20882.5
2001.246	20672.5	2001.246	19955	2001.246	18502.5	2001.246	22387.5	2001.246	20037.5
2001.247	19847.5	2001.247	19185	2001.247	17810	2001.247	21465	2001.247	19110
2001.248	19065	2001.248	18460	2001.248	17047.5	2001.248	20627.5	2001.248	18275
2001.249	18370	2001.249	17657.5	2001.249	16360	2001.249	19682.5	2001.249	17510
2001.25	17675	2001.25	16897.5	2001.25	15695	2001.25	18927.5	2001.25	16687.5
2001.251	17030	2001.251	16177.5	2001.251	15000	2001.251	18080	2001.251	16005
2001.252	16287.5	2001.252	15410	2001.252	14225	2001.252	17227.5	2001.252	15305
2001.253	15665	2001.253	14667.5	2001.253	13550	2001.253	16455	2001.253	14620
2001.254	14927.5	2001.254	13875	2001.254	12860	2001.254	15670	2001.254	13865
2001.255	14202.5	2001.255	13110	2001.255	12230	2001.255	14852.5	2001.255	13140
2001.256	13405	2001.256	12390	2001.256	11507.5	2001.256	14117.5	2001.256	12385
2001.257	12700	2001.257	11682.5	2001.257	10802.5	2001.257	13365	2001.257	11655
2001.258	12012.5	2001.258	10982.5	2001.258	10140	2001.258	12635	2001.258	10990
2001.259	11320	2001.259	10317.5	2001.259	9567.5	2001.259	11937.5	2001.259	10290
2001.26	10615	2001.26	9680	2001.26	8927.5	2001.26	11295	2001.26	9612.5
2001.261	9932.5	2001.261	9040	2001.261	8300	2001.261	10645	2001.261	8922.5
2001.262	9402.5	2001.262	8540	2001.262	7810	2001.262	10040	2001.262	8345
2001.263	8872.5	2001.263	7960	2001.263	7397.5	2001.263	9562.5	2001.263	7870
2001.264	8417.5	2001.264	7490	2001.264	6915	2001.264	9065	2001.264	7435
2001.265	7972.5	2001.265	7120	2001.265	6487.5	2001.265	8602.5	2001.265	6935
2001.266	7767.5	2001.266	6690	2001.266	6182.5	2001.266	8352.5	2001.266	6615
2001.267	7432.5	2001.267	6280	2001.267	5927.5	2001.267	7847.5	2001.267	6265
2001.268	7230	2001.268	5990	2001.268	5695	2001.268	7610	2001.268	6057.5
2001.269	7005	2001.269	5660	2001.269	5430	2001.269	7225	2001.269	5742.5
2001.27	6807.5	2001.27	5405	2001.27	5200	2001.27	6987.5	2001.27	5497.5
2001.271	6620	2001.271	5072.5	2001.271	5040	2001.271	6737.5	2001.271	5272.5
2001.272	6352.5	2001.272	4772.5	2001.272	4692.5	2001.272	6317.5	2001.272	4975
2001.273	6160	2001.273	4527.5	2001.273	4567.5	2001.273	6137.5	2001.273	4795
2001.274	5987.5	2001.274	4270	2001.274	4332.5	2001.274	5875	2001.274	4580
2001.275	5730	2001.275	3992.5	2001.275	4030	2001.275	5505	2001.275	4312.5
2001.276	5385	2001.276	3770	2001.276	3642.5	2001.276	5225	2001.276	3967.5
2001.277	5060	2001.277	3437.5	2001.277	3395	2001.277	4995	2001.277	3665
2001.278	4707.5	2001.278	3017.5	2001.278	3022.5	2001.278	4562.5	2001.278	3330
2001.279	4355	2001.279	2712.5	2001.279	2775	2001.279	4310	2001.279	3065
2001.28	4042.5	2001.28	2452.5	2001.28	2560	2001.28	4010	2001.28	2742.5
2001.281	3785	2001.281	2105	2001.281	2292.5	2001.281	3717.5	2001.281	2362.5
2001.282	3497.5	2001.282	1890	2001.282	2100	2001.282	3537.5	2001.282	2105
2001.283	3235	2001.283	1542.5	2001.283	1815	2001.283	3272.5	2001.283	1832.5
2001.284	3022.5	2001.284	1407.5	2001.284	1665	2001.284	3125	2001.284	1627.5
2001.285	2785	2001.285	1202.5	2001.285	1565	2001.285	2810	2001.285	1355
2001.286	2732.5	2001.286	1047.5	2001.286	1445	2001.286	2847.5	2001.286	1242.5
2001.287	2555	2001.287	950	2001.287	1397.5	2001.287	2555	2001.287	1120
2001.288	2450	2001.288	875	2001.288	1272.5	2001.288	2272.5	2001.288	1020
2001.289	2295	2001.289	675	2001.289	1077.5	2001.289	2177.5	2001.289	847.5
2001.29	2197.5	2001.29	597.5	2001.29	932.5	2001.29	2042.5	2001.29	750
2001.291	2072.5	2001.291	515	2001.291	832.5	2001.291	1837.5	2001.291	640
2001.292	1880	2001.292	385	2001.292	715	2001.292	1662.5	2001.292	455
2001.293	1715	2001.293	290	2001.293	527.5	2001.293	1315	2001.293	362.5
2001.294	1547.5	2001.294	90	2001.294	362.5	2001.294	1180	2001.294	157.5
2001.295	1357.5	2001.295	-112.5	2001.295	262.5	2001.295	1010	2001.295	-75
2001.296	1030	2001.296	-300	2001.296	-85	2001.296	552.5	2001.296	-357.5
2001.297	750	2001.297	-517.5	2001.297	-357.5	2001.297	432.5	2001.297	-662.5
2001.298	397.5	2001.298	-717.5	2001.298	-655	2001.298	17.5	2001.298	-897.5
2001.299	90	2001.299	-895	2001.299	-842.5	2001.299	-222.5	2001.299	-1170
2001.3	-210	2001.3	-1100	2001.3	-1067.5	2001.3	-472.5	2001.3	-1407.5
2001.301	-505	2001.301	-1332.5	2001.301	-1247.5	2001.301	-732.5	2001.301	-1687.5
2001.302	-732.5	2001.302	-1590	2001.302	-1480	2001.302	-1055	2001.302	-1922.5
2001.303	-977.5	2001.303	-1735	2001.303	-1590	2001.303	-1207.5	2001.303	-2150
2001.304	-1140	2001.304	-1835	2001.304	-1730	2001.304	-1357.5	2001.304	-2332.5
2001.305	-1270	2001.305	-1987.5	2001.305	-1855	2001.305	-1495	2001.305	-2532.5
2001.306	-1437.5	2001.306	-2030	2001.306	-1935	2001.306	-1597.5	2001.306	-2557.5
2001.307	-1537.5	2001.307	-2055	2001.307	-1982.5	2001.307	-1817.5	2001.307	-2617.5
2001.308	-1552.5	2001.308	-2157.5	2001.308	-1970	2001.308	-1922.5	2001.308	-2712.5
2001.309	-1682.5	2001.309	-2272.5	2001.309	-2100	2001.309	-1935	2001.309	-2775
2001.31	-1710	2001.31	-2397.5	2001.31	-2270	2001.31	-2122.5	2001.31	-2895
2001.311	-1742.5	2001.311	-2437.5	2001.311	-2347.5	2001.311	-2277.5	2001.311	-2910
2001.312	-1832.5	2001.312	-2570	2001.312	-2500	2001.312	-2405	2001.312	-3007.5
2001.313	-1945	2001.313	-2647.5	2001.313	-2512.5	2001.313	-2517.5	2001.313	-3100
2001.314	-2062.5	2001.314	-2725	2001.314	-2695	2001.314	-2650	2001.314	-3217.5
2001.315	-2230	2001.315	-2870	2001.315	-2860	2001.315	-2785	2001.315	-3340
2001.316	-2432.5	2001.316	-3062.5	2001.316	-3000	2001.316	-3082.5	2001.316	-3550
2001.317	-2687.5	2001.317	-3202.5	2001.317	-3162.5	2001.317	-3335	2001.317	-3672.5
2001.318	-2875	2001.318	-3395	2001.318	-3407.5	2001.318	-3552.5	2001.318	-3960
2001.319	-3087.5	2001.319	-3492.5	2001.319	-3525	2001.319	-3610	2001.319	-4112.5
2001.32	-3300	2001.32	-3545	2001.32	-3672.5	2001.32	-3712.5	2001.32	-4205
2001.321	-3510	2001.321	-3665	2001.321	-3807.5	2001.321	-3892.5	2001.321	-4382.5
2001.322	-3680	2001.322	-3805	2001.322	-3970	2001.322	-3985	2001.322	-4572.5
2001.323	-3770	2001.323	-3910	2001.323	-4042.5	2001.323	-4047.5	2001.323	-4670
2001.324	-3917.5	2001.324	-3962.5	2001.324	-4057.5	2001.324	-4210	2001.324	-4662.5
2001.325	-3962.5	2001.325	-3967.5	2001.325	-4022.5	2001.325	-4220	2001.325	-4697.5
2001.326	-3965	2001.326	-4037.5	2001.326	-4132.5	2001.326	-4065	2001.326	-4732.5
2001.327	-3955	2001.327	-3985	2001.327	-4135	2001.327	-4202.5	2001.327	-4772.5
2001.328	-3840	2001.328	-3985	2001.328	-4070	2001.328	-4052.5	2001.328	-4715
2001.329	-3860	2001.329	-3992.5	2001.329	-4007.5	2001.329	-4185	2001.329	-4690
2001.33	-3867.5	2001.33	-4052.5	2001.33	-4005	2001.33	-4175	2001.33	-4712.5
2001.331	-3705	2001.331	-3980	2001.331	-3985	2001.331	-4185	2001.331	-4570
2001.332	-3817.5	2001.332	-4035	2001.332	-4117.5	2001.332	-4272.5	2001.332	-4620
2001.333	-3845	2001.333	-4077.5	2001.333	-4040	2001.333	-4242.5	2001.333	-4562.5
2001.334	-3872.5	2001.334	-4112.5	2001.334	-4200	2001.334	-4297.5	2001.334	-4645
2001.335	-3942.5	2001.335	-4185	2001.335	-4172.5	2001.335	-4462.5	2001.335	-4675
2001.336	-4045	2001.336	-4135	2001.336	-4285	2001.336	-4402.5	2001.336	-4702.5
2001.337	-4105	2001.337	-4162.5	2001.337	-4300	2001.337	-4375	2001.337	-4730
2001.338	-4177.5	2001.338	-4250	2001.338	-4427.5	2001.338	-4597.5	2001.338	-4882.5
2001.339	-4360	2001.339	-4322.5	2001.339	-4595	2001.339	-4715	2001.339	-4987.5
2001.34	-4420	2001.34	-4422.5	2001.34	-4667.5	2001.34	-4725	2001.34	-5107.5
2001.341	-4612.5	2001.341	-4532.5	2001.341	-4685	2001.341	-4845	2001.341	-5170
2001.342	-4615	2001.342	-4512.5	2001.342	-4760	2001.342	-4677.5	2001.342	-5227.5
2001.343	-4627.5	2001.343	-4502.5	2001.343	-4660	2001.343	-4835	2001.343	-5277.5
2001.344	-4647.5	2001.344	-4520	2001.344	-4680	2001.344	-4752.5	2001.344	-5287.5
2001.345	-4700	2001.345	-4585	2001.345	-4715	2001.345	-4807.5	2001.345	-5257.5
2001.346	-4597.5	2001.346	-4485	2001.346	-4622.5	2001.346	-4712.5	2001.346	-5215
2001.347	-4602.5	2001.347	-4490	2001.347	-4577.5	2001.347	-4830	2001.347	-5135
2001.348	-4477.5	2001.348	-4477.5	2001.348	-4405	2001.348	-4600	2001.348	-5047.5
2001.349	-4392.5	2001.349	-4355	2001.349	-4285	2001.349	-4595	2001.349	-4927.5
2001.35	-4330	2001.35	-4360	2001.35	-4300	2001.35	-4517.5	2001.35	-4842.5
2001.351	-4195	2001.351	-4320	2001.351	-4197.5	2001.351	-4565	2001.351	-4747.5
2001.352	-4107.5	2001.352	-4245	2001.352	-4312.5	2001.352	-4475	2001.352	-4672.5
2001.353	-4012.5	2001.353	-4307.5	2001.353	-4225	2001.353	-4460	2001.353	-4650
2001.354	-3995	2001.354	-4237.5	2001.354	-4182.5	2001.354	-4445	2001.354	-4627.5
2001.355	-4055	2001.355	-4197.5	2001.355	-4242.5	2001.355	-4520	2001.355	-4657.5
2001.356	-4132.5	2001.356	-4307.5	2001.356	-4367.5	2001.356	-4545	2001.356	-4690
2001.357	-4242.5	2001.357	-4347.5	2001.357	-4397.5	2001.357	-4632.5	2001.357	-4792.5
2001.358	-4315	2001.358	-4297.5	2001.358	-4402.5	2001.358	-4710	2001.358	-4840
2001.359	-4385	2001.359	-4450	2001.359	-4545	2001.359	-4692.5	2001.359	-4897.5
2001.36	-4475	2001.36	-4440	2001.36	-4510	2001.36	-4742.5	2001.36	-4945
2001.361	-4562.5	2001.361	-4542.5	2001.361	-4635	2001.361	-4855	2001.361	-5020
2001.362	-4640	2001.362	-4555	2001.362	-4555	2001.362	-4775	2001.362	-5042.5
2001.363	-4672.5	2001.363	-4400	2001.363	-4595	2001.363	-4642.5	2001.363	-5080
2001.364	-4745	2001.364	-4480	2001.364	-4592.5	2001.364	-4650	2001.364	-5140
2001.365	-4675	2001.365	-4395	2001.365	-4557.5	2001.365	-4635	2001.365	-5027.5
2001.366	-4467.5	2001.366	-4370	2001.366	-4365	2001.366	-4507.5	2001.366	-4900
2001.367	-4390	2001.367	-4267.5	2001.367	-4205	2001.367	-4397.5	2001.367	-4790
2001.368	-4250	2001.368	-4267.5	2001.368	-4070	2001.368	-4360	2001.368	-4685
2001.369	-4157.5	2001.369	-4147.5	2001.369	-4055	2001.369	-4387.5	2001.369	-4595
2001.37	-4072.5	2001.37	-4135	2001.37	-3997.5	2001.37	-4370	2001.37	-4540
2001.371	-4022.5	2001.371	-4085	2001.371	-3907.5	2001.371	-4225	2001.371	-4410
2001.372	-3940	2001.372	-4055	2001.372	-3925	2001.372	-4240	2001.372	-4372.5
2001.373	-3932.5	2001.373	-4000	2001.373	-3785	2001.373	-4175	2001.373	-4277.5
2001.374	-3870	2001.374	-3942.5	2001.374	-3827.5	2001.374	-4140	2001.374	-4300
2001.375	-3845	2001.375	-4020	2001.375	-3827.5	2001.375	-4152.5	2001.375	-4200
2001.376	-3912.5	2001.376	-4032.5	2001.376	-3905	2001.376	-4180	2001.376	-4297.5
2001.377	-4012.5	2001.377	-4080	2001.377	-3880	2001.377	-4347.5	2001.377	-4315
2001.378	-4077.5	2001.378	-4102.5	2001.378	-4057.5	2001.378	-4335	2001.378	-4435
2001.379	-4130	2001.379	-4097.5	2001.379	-4007.5	2001.379	-4327.5	2001.379	-4470
2001.38	-4185	2001.38	-4037.5	2001.38	-3985	2001.38	-4320	2001.38	-4495
2001.381	-4317.5	2001.381	-4157.5	2001.381	-4122.5	2001.381	-4222.5	2001.381	-4632.5
2001.382	-4317.5	2001.382	-4142.5	2001.382	-4070	2001.382	-4327.5	2001.382	-4557.5
2001.383	-4362.5	2001.383	-4147.5	2001.383	-3970	2001.383	-4370	2001.383	-4612.5
2001.384	-4260	2001.384	-4140	2001.384	-4005	2001.384	-4225	2001.384	-4600
2001.385	-4215	2001.385	-4157.5	2001.385	-3927.5	2001.385	-4222.5	2001.385	-4487.5
2001.386	-4095	2001.386	-4125	2001.386	-3852.5	2001.386	-4157.5	2001.386	-4515
2001.387	-4097.5	2001.387	-3955	2001.387	-3815	2001.387	-4142.5	2001.387	-4447.5
2001.388	-3955	2001.388	-3940	2001.388	-3735	2001.388	-4080	2001.388	-4330
2001.389	-3857.5	2001.389	-3912.5	2001.389	-3627.5	2001.389	-4075	2001.389	-4312.5
2001.39	-3755	2001.39	-3910	2001.39	-3535	2001.39	-3860	2001.39	-4262.5
2001.391	-3645	2001.391	-3770	2001.391	-3452.5	2001.391	-3862.5	2001.391	-4120
2001.392	-3617.5	2001.392	-3832.5	2001.392	-3470	2001.392	-3925	2001.392	-4060
2001.393	-3512.5	2001.393	-3695	2001.393	-3360	2001.393	-3690	2001.393	-4000
2001.394	-3460	2001.394	-3687.5	2001.394	-3347.5	2001.394	-3740	2001.394	-3957.5
2001.395	-3477.5	2001.395	-3650	2001.395	-3345	2001.395	-3832.5	2001.395	-3855
2001.396	-3615	2001.396	-3720	2001.396	-3407.5	2001.396	-3887.5	2001.396	-3960
2001.397	-3660	2001.397	-3785	2001.397	-3445	2001.397	-4020	2001.397	-4012.5
2001.398	-3772.5	2001.398	-3797.5	2001.398	-3472.5	2001.398	-3995	2001.398	-4100
2001.399	-3915	2001.399	-3920	2001.399	-3580	2001.399	-3970	2001.399	-4175
2001.4	-3970	2001.4	-3902.5	2001.4	-3622.5	2001.4	-4137.5	2001.4	-4255
2001.401	-4120	2001.401	-3997.5	2001.401	-3627.5	2001.401	-4112.5	2001.401	-4307.5
2001.402	-4077.5	2001.402	-3962.5	2001.402	-3635	2001.402	-3965	2001.402	-4305
2001.403	-4115	2001.403	-3905	2001.403	-3680	2001.403	-4085	2001.403	-4407.5
2001.404	-4120	2001.404	-3950	2001.404	-3632.5	2001.404	-4062.5	2001.404	-4342.5
2001.405	-4092.5	2001.405	-3955	2001.405	-3535	2001.405	-3940	2001.405	-4400
2001.406	-3977.5	2001.406	-3825	2001.406	-3437.5	2001.406	-3825	2001.406	-4255
2001.407	-3910	2001.407	-3767.5	2001.407	-3267.5	2001.407	-3652.5	2001.407	-4167.5
2001.408	-3742.5	2001.408	-3660	2001.408	-3197.5	2001.408	-3580	2001.408	-4077.5
2001.409	-3572.5	2001.409	-3717.5	2001.409	-3045	2001.409	-3535	2001.409	-4032.5
2001.41	-3537.5	2001.41	-3577.5	2001.41	-2965	2001.41	-3490	2001.41	-3895
2001.411	-3387.5	2001.411	-3522.5	2001.411	-2817.5	2001.411	-3382.5	2001.411	-3795
2001.412	-3267.5	2001.412	-3495	2001.412	-2917.5	2001.412	-3400	2001.412	-3787.5
2001.413	-3255	2001.413	-3425	2001.413	-2955	2001.413	-3392.5	2001.413	-3660
2001.414	-3277.5	2001.414	-3477.5	2001.414	-2920	2001.414	-3377.5	2001.414	-3627.5
2001.415	-3322.5	2001.415	-3570	2001.415	-2875	2001.415	-3327.5	2001.415	-3592.5
2001.416	-3385	2001.416	-3580	2001.416	-2882.5	2001.416	-3485	2001.416	-3670
2001.417	-3450	2001.417	-3635	2001.417	-2912.5	2001.417	-3407.5	2001.417	-3712.5
2001.418	-3550	2001.418	-3797.5	2001.418	-3065	2001.418	-3670	2001.418	-3847.5
2001.419	-3667.5	2001.419	-3880	2001.419	-3092.5	2001.419	-3587.5	2001.419	-3845
2001.42	-3740	2001.42	-3870	2001.42	-3062.5	2001.42	-3725	2001.42	-3952.5
2001.421	-3832.5	2001.421	-3930	2001.421	-3180	2001.421	-3600	2001.421	-4047.5
2001.422	-3890	2001.422	-3967.5	2001.422	-3102.5	2001.422	-3645	2001.422	-4017.5
2001.423	-3910	2001.423	-3985	2001.423	-3092.5	2001.423	-3665	2001.423	-4030
2001.424	-3902.5	2001.424	-4097.5	2001.424	-3075	2001.424	-3577.5	2001.424	-4007.5
2001.425	-3920	2001.425	-4150	2001.425	-3052.5	2001.425	-3530	2001.425	-3990
2001.426	-3860	2001.426	-4030	2001.426	-2972.5	2001.426	-3510	2001.426	-3937.5
2001.427	-3732.5	2001.427	-4082.5	2001.427	-2870	2001.427	-3447.5	2001.427	-3872.5
2001.428	-3685	2001.428	-4070	2001.428	-2752.5	2001.428	-3350	2001.428	-3732.5
2001.429	-3600	2001.429	-4100	2001.429	-2725	2001.429	-3285	2001.429	-3695
2001.43	-3530	2001.43	-4032.5	2001.43	-2620	2001.43	-3207.5	2001.43	-3550
2001.431	-3425	2001.431	-4050	2001.431	-2497.5	2001.431	-3160	2001.431	-3487.5
2001.432	-3475	2001.432	-4062.5	2001.432	-2612.5	2001.432	-3225	2001.432	-3442.5
2001.433	-3440	2001.433	-3997.5	2001.433	-2535	2001.433	-3207.5	2001.433	-3345
2001.434	-3450	2001.434	-3905	2001.434	-2562.5	2001.434	-3152.5	2001.434	-3385
2001.435	-3450	2001.435	-3772.5	2001.435	-2462.5	2001.435	-3247.5	2001.435	-3352.5
2001.436	-3545	2001.436	-3772.5	2001.436	-2560	2001.436	-3125	2001.436	-3405
2001.437	-3585	2001.437	-3720	2001.437	-2552.5	2001.437	-3207.5	2001.437	-3390
2001.438	-3692.5	2001.438	-3570	2001.438	-2577.5	2001.438	-3242.5	2001.438	-3425
2001.439	-3810	2001.439	-3557.5	2001.439	-2615	2001.439	-3230	2001.439	-3460
2001.44	-3947.5	2001.44	-3570	2001.44	-2640	2001.44	-3397.5	2001.44	-3490
2001.441	-4037.5	2001.441	-3477.5	2001.441	-2732.5	2001.441	-3322.5	2001.441	-3502.5
2001.442	-4145	2001.442	-3367.5	2001.442	-2772.5	2001.442	-3430	2001.442	-3525
2001.443	-4170	2001.443	-3330	2001.443	-2735	2001.443	-3390	2001.443	-3505
2001.444	-4177.5	2001.444	-3280	2001.444	-2680	2001.444	-3435	2001.444	-3545
2001.445	-4187.5	2001.445	-3280	2001.445	-2625	2001.445	-3365	2001.445	-3455
2001.446	-4095	2001.446	-3182.5	2001.446	-2577.5	2001.446	-3390	2001.446	-3387.5
2001.447	-4105	2001.447	-3110	2001.447	-2510	2001.447	-3290	2001.447	-3330
2001.448	-3955	2001.448	-2957.5	2001.448	-2317.5	2001.448	-3192.5	2001.448	-3205
2001.449	-3777.5	2001.449	-2897.5	2001.449	-2242.5	2001.449	-3112.5	2001.449	-3092.5
2001.45	-3737.5	2001.45	-2722.5	2001.45	-2250	2001.45	-3065	2001.45	-3022.5
2001.451	-3617.5	2001.451	-2660	2001.451	-2115	2001.451	-2957.5	2001.451	-2882.5
2001.452	-3622.5	2001.452	-2545	2001.452	-2090	2001.452	-3105	2001.452	-2830
2001.453	-3525	2001.453	-2572.5	2001.453	-2052.5	2001.453	-3032.5	2001.453	-2797.5
2001.454	-3575	2001.454	-2530	2001.454	-2030	2001.454	-3145	2001.454	-2717.5
2001.455	-3697.5	2001.455	-2472.5	2001.455	-2162.5	2001.455	-3145	2001.455	-2715
2001.456	-3720	2001.456	-2510	2001.456	-2135	2001.456	-3120	2001.456	-2787.5
2001.457	-3860	2001.457	-2535	2001.457	-2192.5	2001.457	-3297.5	2001.457	-2852.5
2001.458	-3952.5	2001.458	-2475	2001.458	-2310	2001.458	-3372.5	2001.458	-2880
2001.459	-3992.5	2001.459	-2545	2001.459	-2322.5	2001.459	-3372.5	2001.459	-2932.5
2001.46	-4137.5	2001.46	-2512.5	2001.46	-2320	2001.46	-3562.5	2001.46	-3027.5
2001.461	-4162.5	2001.461	-2547.5	2001.461	-2385	2001.461	-3515	2001.461	-3100
2001.462	-4200	2001.462	-2572.5	2001.462	-2435	2001.462	-3547.5	2001.462	-3157.5
2001.463	-4302.5	2001.463	-2567.5	2001.463	-2405	2001.463	-3640	2001.463	-3085
2001.464	-4242.5	2001.464	-2545	2001.464	-2400	2001.464	-3595	2001.464	-3107.5
2001.465	-4267.5	2001.465	-2492.5	2001.465	-2332.5	2001.465	-3502.5	2001.465	-3152.5
2001.466	-4192.5	2001.466	-2415	2001.466	-2340	2001.466	-3562.5	2001.466	-3045
2001.467	-4062.5	2001.467	-2395	2001.467	-2262.5	2001.467	-3542.5	2001.467	-2992.5
2001.468	-3960	2001.468	-2265	2001.468	-2115	2001.468	-3480	2001.468	-2870
2001.469	-3857.5	2001.469	-2217.5	2001.469	-2027.5	2001.469	-3472.5	2001.469	-2787.5
2001.47	-3720	2001.47	-2137.5	2001.47	-1960	2001.47	-3367.5	2001.47	-2700
2001.471	-3620	2001.471	-2057.5	2001.471	-1855	2001.471	-3285	2001.471	-2592.5
2001.472	-3565	2001.472	-1992.5	2001.472	-1867.5	2001.472	-3347.5	2001.472	-2500
2001.473	-3462.5	2001.473	-1955	2001.473	-1752.5	2001.473	-3287.5	2001.473	-2437.5
2001.474	-3442.5	2001.474	-1922.5	2001.474	-1727.5	2001.474	-3410	2001.474	-2430
2001.475	-3460	2001.475	-1937.5	2001.475	-1790	2001.475	-3437.5	2001.475	-2387.5
2001.476	-3497.5	2001.476	-1985	2001.476	-1850	2001.476	-3435	2001.476	-2427.5
2001.477	-3567.5	2001.477	-1987.5	2001.477	-1912.5	2001.477	-3510	2001.477	-2482.5
2001.478	-3567.5	2001.478	-1942.5	2001.478	-2020	2001.478	-3437.5	2001.478	-2525
2001.479	-3625	2001.479	-1975	2001.479	-1972.5	2001.479	-3485	2001.479	-2492.5
2001.48	-3695	2001.48	-2010	2001.48	-1977.5	2001.48	-3620	2001.48	-2580
2001.481	-3770	2001.481	-2137.5	2001.481	-2070	2001.481	-3602.5	2001.481	-2630
2001.482	-3820	2001.482	-2132.5	2001.482	-2072.5	2001.482	-3737.5	2001.482	-2695
2001.483	-3835	2001.483	-2145	2001.483	-2002.5	2001.483	-3742.5	2001.483	-2727.5
2001.484	-3750	2001.484	-2152.5	2001.484	-2155	2001.484	-3637.5	2001.484	-2745
2001.485	-3737.5	2001.485	-2142.5	2001.485	-1980	2001.485	-3560	2001.485	-2642.5
2001.486	-3650	2001.486	-2055	2001.486	-1897.5	2001.486	-3482.5	2001.486	-2565
2001.487	-3580	2001.487	-2005	2001.487	-1852.5	2001.487	-3522.5	2001.487	-2547.5
2001.488	-3437.5	2001.488	-1855	2001.488	-1787.5	2001.488	-3380	2001.488	-2342.5
2001.489	-3307.5	2001.489	-1872.5	2001.489	-1660	2001.489	-3247.5	2001.489	-2260
2001.49	-3155	2001.49	-1760	2001.49	-1595	2001.49	-3210	2001.49	-2062.5
2001.491	-3047.5	2001.491	-1687.5	2001.491	-1545	2001.491	-3190	2001.491	-1927.5
2001.492	-2955	2001.492	-1640	2001.492	-1477.5	2001.492	-3170	2001.492	-1930
2001.493	-2837.5	2001.493	-1620	2001.493	-1417.5	2001.493	-3040	2001.493	-1812.5
2001.494	-2892.5	2001.494	-1627.5	2001.494	-1472.5	2001.494	-3142.5	2001.494	-1832.5
2001.495	-2872.5	2001.495	-1660	2001.495	-1400	2001.495	-3140	2001.495	-1822.5
2001.496	-2950	2001.496	-1667.5	2001.496	-1580	2001.496	-3170	2001.496	-1862.5
2001.497	-3007.5	2001.497	-1725	2001.497	-1592.5	2001.497	-3167.5	2001.497	-1960
2001.498	-3155	2001.498	-1765	2001.498	-1660	2001.498	-3260	2001.498	-1987.5
2001.499	-3175	2001.499	-1795	2001.499	-1777.5	2001.499	-3305	2001.499	-2032.5
2001.5	-3257.5	2001.5	-1837.5	2001.5	-1770	2001.5	-3407.5	2001.5	-2107.5
2001.501	-3290	2001.501	-1862.5	2001.501	-1810	2001.501	-3340	2001.501	-2240
2001.502	-3287.5	2001.502	-1875	2001.502	-1785	2001.502	-3400	2001.502	-2200
2001.503	-3320	2001.503	-1917.5	2001.503	-1777.5	2001.503	-3410	2001.503	-2232.5
2001.504	-3285	2001.504	-1910	2001.504	-1805	2001.504	-3412.5	2001.504	-2262.5
2001.505	-3290	2001.505	-1870	2001.505	-1667.5	2001.505	-3355	2001.505	-2207.5
2001.506	-3165	2001.506	-1852.5	2001.506	-1660	2001.506	-3167.5	2001.506	-2115
2001.507	-3082.5	2001.507	-1797.5	2001.507	-1615	2001.507	-3207.5	2001.507	-2080
2001.508	-2922.5	2001.508	-1672.5	2001.508	-1460	2001.508	-3082.5	2001.508	-1965
2001.509	-2832.5	2001.509	-1625	2001.509	-1462.5	2001.509	-3035	2001.509	-1777.5
2001.51	-2770	2001.51	-1630	2001.51	-1300	2001.51	-3052.5	2001.51	-1792.5
2001.511	-2590	2001.511	-1520	2001.511	-1292.5	2001.511	-2902.5	2001.511	-1610
2001.512	-2510	2001.512	-1575	2001.512	-1277.5	2001.512	-2795	2001.512	-1535
2001.513	-2487.5	2001.513	-1547.5	2001.513	-1220	2001.513	-2870	2001.513	-1495
2001.514	-2440	2001.514	-1477.5	2001.514	-1197.5	2001.514	-2917.5	2001.514	-1470
2001.515	-2370	2001.515	-1535	2001.515	-1295	2001.515	-2822.5	2001.515	-1520
2001.516	-2522.5	2001.516	-1557.5	2001.516	-1452.5	2001.516	-2970	2001.516	-1602.5
2001.517	-2585	2001.517	-1595	2001.517	-1397.5	2001.517	-2877.5	2001.517	-1707.5
2001.518	-2687.5	2001.518	-1607.5	2001.518	-1395	2001.518	-2982.5	2001.518	-1792.5
2001.519	-2795	2001.519	-1687.5	2001.519	-1440	2001.519	-3047.5	2001.519	-1810
2001.52	-2872.5	2001.52	-1760	2001.52	-1495	2001.52	-3080	2001.52	-1920
2001.521	-2905	2001.521	-1745	2001.521	-1627.5	2001.521	-3185	2001.521	-1982.5
2001.522	-2895	2001.522	-1785	2001.522	-1702.5	2001.522	-3067.5	2001.522	-2052.5
2001.523	-2957.5	2001.523	-1795	2001.523	-1720	2001.523	-3130	2001.523	-2065
2001.524	-2917.5	2001.524	-1825	2001.524	-1607.5	2001.524	-3105	2001.524	-2042.5
2001.525	-2872.5	2001.525	-1725	2001.525	-1597.5	2001.525	-3010	2001.525	-1990
2001.526	-2785	2001.526	-1720	2001.526	-1552.5	2001.526	-2967.5	2001.526	-1900
2001.527	-2660	2001.527	-1662.5	2001.527	-1375	2001.527	-2935	2001.527	-1880
2001.528	-2565	2001.528	-1602.5	2001.528	-1287.5	2001.528	-2777.5	2001.528	-1820
2001.529	-2497.5	2001.529	-1505	2001.529	-1247.5	2001.529	-2790	2001.529	-1705
2001.53	-2400	2001.53	-1462.5	2001.53	-1155	2001.53	-2672.5	2001.53	-1570
2001.531	-2257.5	2001.531	-1347.5	2001.531	-1190	2001.531	-2612.5	2001.531	-1537.5
2001.532	-2132.5	2001.532	-1337.5	2001.532	-1075	2001.532	-2627.5	2001.532	-1432.5
2001.533	-2005	2001.533	-1272.5	2001.533	-987.5	2001.533	-2640	2001.533	-1342.5
2001.534	-1980	2001.534	-1295	2001.534	-1105	2001.534	-2470	2001.534	-1285
2001.535	-2070	2001.535	-1282.5	2001.535	-1122.5	2001.535	-2525	2001.535	-1320
2001.536	-2107.5	2001.536	-1302.5	2001.536	-1210	2001.536	-2640	2001.536	-1367.5
2001.537	-2215	2001.537	-1292.5	2001.537	-1210	2001.537	-2627.5	2001.537	-1450
2001.538	-2272.5	2001.538	-1360	2001.538	-1302.5	2001.538	-2765	2001.538	-1467.5
2001.539	-2375	2001.539	-1392.5	2001.539	-1345	2001.539	-2847.5	2001.539	-1582.5
2001.54	-2470	2001.54	-1450	2001.54	-1437.5	2001.54	-2837.5	2001.54	-1632.5
2001.541	-2532.5	2001.541	-1515	2001.541	-1510	2001.541	-2777.5	2001.541	-1712.5
2001.542	-2582.5	2001.542	-1507.5	2001.542	-1580	2001.542	-2902.5	2001.542	-1812.5
2001.543	-2635	2001.543	-1585	2001.543	-1635	2001.543	-2895	2001.543	-1865
2001.544	-2577.5	2001.544	-1562.5	2001.544	-1670	2001.544	-2855	2001.544	-1865
2001.545	-2505	2001.545	-1480	2001.545	-1410	2001.545	-2795	2001.545	-1767.5
2001.546	-2407.5	2001.546	-1430	2001.546	-1442.5	2001.546	-2747.5	2001.546	-1645
2001.547	-2300	2001.547	-1347.5	2001.547	-1242.5	2001.547	-2627.5	2001.547	-1575
2001.548	-2137.5	2001.548	-1282.5	2001.548	-1200	2001.548	-2510	2001.548	-1465
2001.549	-2050	2001.549	-1160	2001.549	-1080	2001.549	-2537.5	2001.549	-1350
2001.55	-1877.5	2001.55	-1190	2001.55	-1050	2001.55	-2392.5	2001.55	-1275
2001.551	-1805	2001.551	-1112.5	2001.551	-960	2001.551	-2310	2001.551	-1187.5
2001.552	-1775	2001.552	-1145	2001.552	-972.5	2001.552	-2307.5	2001.552	-1192.5
2001.553	-1597.5	2001.553	-1102.5	2001.553	-977.5	2001.553	-2295	2001.553	-1110
2001.554	-1682.5	2001.554	-990	2001.554	-1000	2001.554	-2332.5	2001.554	-1065
2001.555	-1612.5	2001.555	-1022.5	2001.555	-952.5	2001.555	-2372.5	2001.555	-1117.5
2001.556	-1672.5	2001.556	-1072.5	2001.556	-1060	2001.556	-2407.5	2001.556	-1090
2001.557	-1845	2001.557	-1140	2001.557	-1110	2001.557	-2437.5	2001.557	-1240
2001.558	-1912.5	2001.558	-1080	2001.558	-1125	2001.558	-2427.5	2001.558	-1197.5
2001.559	-2002.5	2001.559	-1182.5	2001.559	-1242.5	2001.559	-2547.5	2001.559	-1257.5
2001.56	-1967.5	2001.56	-1190	2001.56	-1360	2001.56	-2560	2001.56	-1325
2001.561	-2047.5	2001.561	-1135	2001.561	-1272.5	2001.561	-2535	2001.561	-1372.5
2001.562	-2152.5	2001.562	-1125	2001.562	-1342.5	2001.562	-2547.5	2001.562	-1370
2001.563	-2052.5	2001.563	-1225	2001.563	-1352.5	2001.563	-2642.5	2001.563	-1425
2001.564	-2052.5	2001.564	-1145	2001.564	-1342.5	2001.564	-2605	2001.564	-1425
2001.565	-2005	2001.565	-1112.5	2001.565	-1257.5	2001.565	-2337.5	2001.565	-1430
2001.566	-1862.5	2001.566	-1057.5	2001.566	-1240	2001.566	-2392.5	2001.566	-1317.5
2001.567	-1842.5	2001.567	-1050	2001.567	-1137.5	2001.567	-2237.5	2001.567	-1277.5
2001.568	-1737.5	2001.568	-1037.5	2001.568	-1040	2001.568	-2172.5	2001.568	-1132.5
2001.569	-1620	2001.569	-940	2001.569	-1050	2001.569	-2310	2001.569	-1055
2001.57	-1450	2001.57	-912.5	2001.57	-897.5	2001.57	-2080	2001.57	-1040
2001.571	-1382.5	2001.571	-790	2001.571	-872.5	2001.571	-2140	2001.571	-980
2001.572	-1385	2001.572	-780	2001.572	-830	2001.572	-2127.5	2001.572	-900
2001.573	-1315	2001.573	-677.5	2001.573	-755	2001.573	-2032.5	2001.573	-847.5
2001.574	-1210	2001.574	-647.5	2001.574	-757.5	2001.574	-2060	2001.574	-772.5
2001.575	-1272.5	2001.575	-642.5	2001.575	-705	2001.575	-2075	2001.575	-800
2001.576	-1207.5	2001.576	-657.5	2001.576	-797.5	2001.576	-1980	2001.576	-837.5
2001.577	-1257.5	2001.577	-792.5	2001.577	-910	2001.577	-2077.5	2001.577	-892.5
2001.578	-1442.5	2001.578	-820	2001.578	-1070	2001.578	-2292.5	2001.578	-1062.5
2001.579	-1532.5	2001.579	-980	2001.579	-1125	2001.579	-2300	2001.579	-1147.5
2001.58	-1762.5	2001.58	-1150	2001.58	-1345	2001.58	-2422.5	2001.58	-1320
2001.581	-2150	2001.581	-1410	2001.581	-1557.5	2001.581	-2787.5	2001.581	-1685
2001.582	-2160	2001.582	-1427.5	2001.582	-1637.5	2001.582	-2855	2001.582	-1675
2001.583	-2515	2001.583	-1762.5	2001.583	-1887.5	2001.583	-3077.5	2001.583	-2010
2001.584	-2742.5	2001.584	-2047.5	2001.584	-2145	2001.584	-3295	2001.584	-2275
2001.585	-2872.5	2001.585	-2202.5	2001.585	-2282.5	2001.585	-3462.5	2001.585	-2502.5
2001.586	-2695	2001.586	-2100	2001.586	-2120	2001.586	-3407.5	2001.586	-2342.5
2001.587	-2237.5	2001.587	-1620	2001.587	-1655	2001.587	-2875	2001.587	-1927.5
2001.588	-1682.5	2001.588	-1037.5	2001.588	-1152.5	2001.588	-2242.5	2001.588	-1250
2001.589	-1310	2001.589	-697.5	2001.589	-792.5	2001.589	-1930	2001.589	-892.5
2001.59	-907.5	2001.59	-412.5	2001.59	-447.5	2001.59	-1695	2001.59	-550
2001.591	-357.5	2001.591	137.5	2001.591	157.5	2001.591	-1150	2001.591	32.5
2001.592	17.5	2001.592	390	2001.592	450	2001.592	-750	2001.592	395
2001.593	-345	2001.593	77.5	2001.593	77.5	2001.593	-1112.5	2001.593	62.5
2001.594	-292.5	2001.594	110	2001.594	20	2001.594	-1250	2001.594	-15
2001.595	-512.5	2001.595	-87.5	2001.595	-222.5	2001.595	-1367.5	2001.595	-162.5
2001.596	-1320	2001.596	-810	2001.596	-1022.5	2001.596	-2152.5	2001.596	-970
2001.597	-2347.5	2001.597	-2025	2001.597	-2152.5	2001.597	-3350	2001.597	-2082.5
2001.598	-1662.5	2001.598	-1232.5	2001.598	-1400	2001.598	-2647.5	2001.598	-1300
2001.599	-1250	2001.599	-707.5	2001.599	-912.5	2001.599	-2057.5	2001.599	-852.5
2001.6	-1640	2001.6	-1077.5	2001.6	-1260	2001.6	-2397.5	2001.6	-1210
2001.601	-1650	2001.601	-1035	2001.601	-1152.5	2001.601	-2270	2001.601	-1177.5
2001.602	-1585	2001.602	-952.5	2001.602	-1135	2001.602	-2142.5	2001.602	-1070
2001.603	-1852.5	2001.603	-1140	2001.603	-1272.5	2001.603	-2437.5	2001.603	-1377.5
2001.604	-2100	2001.604	-1375	2001.604	-1562.5	2001.604	-2632.5	2001.604	-1580
2001.605	-2172.5	2001.605	-1505	2001.605	-1555	2001.605	-2672.5	2001.605	-1745
2001.606	-2152.5	2001.606	-1547.5	2001.606	-1705	2001.606	-2765	2001.606	-1715
2001.607	-2597.5	2001.607	-2175	2001.607	-2207.5	2001.607	-3327.5	2001.607	-2260
2001.608	-2887.5	2001.608	-2605	2001.608	-2640	2001.608	-3837.5	2001.608	-2615
2001.609	-3022.5	2001.609	-2855	2001.609	-2907.5	2001.609	-4032.5	2001.609	-2860
2001.61	-3182.5	2001.61	-3025	2001.61	-3055	2001.61	-4085	2001.61	-3095
2001.611	-3165	2001.611	-3077.5	2001.611	-3030	2001.611	-4180	2001.611	-3057.5
2001.612	-3092.5	2001.612	-2960	2001.612	-3017.5	2001.612	-4112.5	2001.612	-2957.5
2001.613	-2952.5	2001.613	-2925	2001.613	-3037.5	2001.613	-4107.5	2001.613	-2897.5
2001.614	-2940	2001.614	-2840	2001.614	-2972.5	2001.614	-4037.5	2001.614	-2805
2001.615	-2835	2001.615	-2790	2001.615	-3000	2001.615	-4072.5	2001.615	-2762.5
2001.616	-2852.5	2001.616	-2775	2001.616	-2970	2001.616	-3957.5	2001.616	-2732.5
2001.617	-2837.5	2001.617	-2665	2001.617	-2940	2001.617	-3867.5	2001.617	-2692.5
2001.618	-2855	2001.618	-2670	2001.618	-3012.5	2001.618	-3855	2001.618	-2682.5
2001.619	-2917.5	2001.619	-2640	2001.619	-2862.5	2001.619	-3845	2001.619	-2662.5
2001.62	-2900	2001.62	-2622.5	2001.62	-2832.5	2001.62	-3822.5	2001.62	-2735
2001.621	-2890	2001.621	-2597.5	2001.621	-2820	2001.621	-3860	2001.621	-2640
2001.622	-2907.5	2001.622	-2435	2001.622	-2702.5	2001.622	-3637.5	2001.622	-2540
2001.623	-2802.5	2001.623	-2390	2001.623	-2605	2001.623	-3587.5	2001.623	-2547.5
2001.624	-2825	2001.624	-2372.5	2001.624	-2630	2001.624	-3532.5	2001.624	-2570
2001.625	-2725	2001.625	-2352.5	2001.625	-2492.5	2001.625	-3487.5	2001.625	-2440
2001.626	-2542.5	2001.626	-2207.5	2001.626	-2337.5	2001.626	-3320	2001.626	-2340
2001.627	-2410	2001.627	-2140	2001.627	-2212.5	2001.627	-3215	2001.627	-2222.5
2001.628	-2222.5	2001.628	-2017.5	2001.628	-2060	2001.628	-3065	2001.628	-2020
2001.629	-2075	2001.629	-1917.5	2001.629	-2027.5	2001.629	-2897.5	2001.629	-1882.5
2001.63	-1905	2001.63	-1745	2001.63	-1842.5	2001.63	-2785	2001.63	-1745
2001.631	-1795	2001.631	-1665	2001.631	-1730	2001.631	-2712.5	2001.631	-1577.5
2001.632	-1675	2001.632	-1567.5	2001.632	-1635	2001.632	-2652.5	2001.632	-1505
2001.633	-1590	2001.633	-1542.5	2001.633	-1612.5	2001.633	-2502.5	2001.633	-1415
2001.634	-1585	2001.634	-1542.5	2001.634	-1597.5	2001.634	-2565	2001.634	-1392.5
2001.635	-1570	2001.635	-1567.5	2001.635	-1570	2001.635	-2650	2001.635	-1400
2001.636	-1650	2001.636	-1600	2001.636	-1662.5	2001.636	-2642.5	2001.636	-1477.5
2001.637	-1655	2001.637	-1475	2001.637	-1730	2001.637	-2580	2001.637	-1487.5
2001.638	-1707.5	2001.638	-1527.5	2001.638	-1690	2001.638	-2630	2001.638	-1547.5
2001.639	-1820	2001.639	-1587.5	2001.639	-1695	2001.639	-2665	2001.639	-1552.5
2001.64	-1882.5	2001.64	-1592.5	2001.64	-1860	2001.64	-2605	2001.64	-1612.5
2001.641	-1960	2001.641	-1642.5	2001.641	-1900	2001.641	-2547.5	2001.641	-1750
2001.642	-2030	2001.642	-1715	2001.642	-1867.5	2001.642	-2672.5	2001.642	-1720
2001.643	-2395	2001.643	-2067.5	2001.643	-2160	2001.643	-3045	2001.643	-2072.5
2001.644	-3117.5	2001.644	-2832.5	2001.644	-2940	2001.644	-3695	2001.644	-2857.5
2001.645	-3385	2001.645	-3162.5	2001.645	-3460	2001.645	-3975	2001.645	-3225
2001.646	-2027.5	2001.646	-2015	2001.646	-2632.5	2001.646	-2482.5	2001.646	-2030
2001.647	707.5	2001.647	162.5	2001.647	-1717.5	2001.647	940	2001.647	-295
2001.648	5887.5	2001.648	4620	2001.648	1200	2001.648	6897.5	2001.648	3642.5
2001.649	14185	2001.649	12317.5	2001.649	7185	2001.649	16297.5	2001.649	11080
2001.65	24047.5	2001.65	22310	2001.65	16682.5	2001.65	27305	2001.65	21317.5
2001.651	31815	2001.651	31325	2001.651	27260	2001.651	34670	2001.651	30870
2001.652	39027.5	2001.652	41187.5	2001.652	38627.5	2001.652	39412.5	2001.652	40095
2001.653	47220	2001.653	51835	2001.653	50012.5	2001.653	44387.5	2001.653	50175
2001.654	54025	2001.654	58727.5	2001.654	56915	2001.654	50330	2001.654	57172.5
2001.655	60287.5	2001.655	63875	2001.655	60315	2001.655	54642.5	2001.655	63807.5
2001.656	67350	2001.656	71900	2001.656	61862.5	2001.656	46337.5	2001.656	76935
2001.657	-2252.5	2001.657	-18035	2001.657	-19560	2001.657	-10477.5	2001.657	-22067.5
2001.658	-10275	2001.658	-13602.5	2001.658	-12602.5	2001.658	-5597.5	2001.658	-11665
2001.659	-2195	2001.659	-5952.5	2001.659	-6527.5	2001.659	1237.5	2001.659	-3175
2001.66	2072.5	2001.66	-1430	2001.66	-2717.5	2001.66	6620	2001.66	1320
2001.661	5157.5	2001.661	1662.5	2001.661	442.5	2001.661	10925	2001.661	4692.5
2001.662	7307.5	2001.662	3612.5	2001.662	2247.5	2001.662	14200	2001.662	6820
2001.663	8495	2001.663	4415	2001.663	2980	2001.663	16177.5	2001.663	7892.5
2001.664	10575	2001.664	5997.5	2001.664	4400	2001.664	19140	2001.664	9887.5
2001.665	12910	2001.665	7902.5	2001.665	6115	2001.665	21995	2001.665	12150
2001.666	15507.5	2001.666	10042.5	2001.666	7955	2001.666	24897.5	2001.666	14635
2001.667	18215	2001.667	12432.5	2001.667	9955	2001.667	27262.5	2001.667	17210
2001.668	20805	2001.668	14850	2001.668	12052.5	2001.668	29027.5	2001.668	19567.5
2001.669	22952.5	2001.669	17310	2001.669	14282.5	2001.669	30025	2001.669	21707.5
2001.67	24707.5	2001.67	19510	2001.67	16532.5	2001.67	30390	2001.67	23410
2001.671	25757.5	2001.671	21407.5	2001.671	18505	2001.671	30452.5	2001.671	24522.5
2001.672	26300	2001.672	22710	2001.672	19977.5	2001.672	30000	2001.672	25155
2001.673	26442.5	2001.673	23380	2001.673	21072.5	2001.673	29350	2001.673	25317.5
2001.674	26060	2001.674	23605	2001.674	21642.5	2001.674	28472.5	2001.674	25017.5
2001.675	25467.5	2001.675	23495	2001.675	21537.5	2001.675	27497.5	2001.675	24555
2001.676	24597.5	2001.676	23147.5	2001.676	21205	2001.676	26387.5	2001.676	23742.5
2001.677	23785	2001.677	22602.5	2001.677	20855	2001.677	25312.5	2001.677	23010
2001.678	22845	2001.678	21820	2001.678	20167.5	2001.678	24327.5	2001.678	22015
2001.679	21802.5	2001.679	21027.5	2001.679	19312.5	2001.679	23205	2001.679	20960
2001.68	20767.5	2001.68	20195	2001.68	18437.5	2001.68	22077.5	2001.68	19967.5
2001.681	19730	2001.681	19325	2001.681	17627.5	2001.681	21012.5	2001.681	19030
2001.682	18817.5	2001.682	18412.5	2001.682	16705	2001.682	20097.5	2001.682	18047.5
2001.683	17945	2001.683	17537.5	2001.683	15822.5	2001.683	19135	2001.683	17097.5
2001.684	17105	2001.684	16725	2001.684	15210	2001.684	18220	2001.684	16265
2001.685	16407.5	2001.685	15897.5	2001.685	14447.5	2001.685	17350	2001.685	15530
2001.686	15805	2001.686	15207.5	2001.686	13912.5	2001.686	16812.5	2001.686	14847.5
2001.687	15102.5	2001.687	14520	2001.687	13240	2001.687	16040	2001.687	14122.5
2001.688	14440	2001.688	13925	2001.688	12600	2001.688	15340	2001.688	13555
2001.689	13972.5	2001.689	13310	2001.689	12112.5	2001.689	14612.5	2001.689	13017.5
2001.69	13445	2001.69	12625	2001.69	11600	2001.69	13997.5	2001.69	12400
2001.691	12947.5	2001.691	12035	2001.691	10972.5	2001.691	13390	2001.691	11885
2001.692	12472.5	2001.692	11445	2001.692	10505	2001.692	12680	2001.692	11355
2001.693	11892.5	2001.693	10917.5	2001.693	9965	2001.693	12262.5	2001.693	10857.5
2001.694	11380	2001.694	10280	2001.694	9407.5	2001.694	11682.5	2001.694	10305
2001.695	10842.5	2001.695	9650	2001.695	8892.5	2001.695	11155	2001.695	9810
2001.696	10220	2001.696	9147.5	2001.696	8302.5	2001.696	10402.5	2001.696	9192.5
2001.697	9675	2001.697	8530	2001.697	7832.5	2001.697	9957.5	2001.697	8632.5
2001.698	9170	2001.698	8120	2001.698	7302.5	2001.698	9310	2001.698	8105
2001.699	8622.5	2001.699	7602.5	2001.699	6822.5	2001.699	8900	2001.699	7635
2001.7	8105	2001.7	7172.5	2001.7	6400	2001.7	8310	2001.7	7130
2001.701	7622.5	2001.701	6677.5	2001.701	5950	2001.701	7860	2001.701	6615
2001.702	7210	2001.702	6345	2001.702	5542.5	2001.702	7515	2001.702	6202.5
2001.703	6875	2001.703	5980	2001.703	5302.5	2001.703	7165	2001.703	5832.5
2001.704	6482.5	2001.704	5627.5	2001.704	4947.5	2001.704	6817.5	2001.704	5552.5
2001.705	6215	2001.705	5307.5	2001.705	4735	2001.705	6507.5	2001.705	5197.5
2001.706	6032.5	2001.706	5060	2001.706	4615	2001.706	6375	2001.706	5007.5
2001.707	5842.5	2001.707	4832.5	2001.707	4337.5	2001.707	6017.5	2001.707	4727.5
2001.708	5757.5	2001.708	4637.5	2001.708	4260	2001.708	5930	2001.708	4660
2001.709	5605	2001.709	4367.5	2001.709	4100	2001.709	5712.5	2001.709	4467.5
2001.71	5462.5	2001.71	4147.5	2001.71	3935	2001.71	5390	2001.71	4240
2001.711	5257.5	2001.711	3915	2001.711	3767.5	2001.711	5200	2001.711	4172.5
2001.712	5090	2001.712	3685	2001.712	3497.5	2001.712	4945	2001.712	3872.5
2001.713	4922.5	2001.713	3415	2001.713	3327.5	2001.713	4675	2001.713	3680
2001.714	4670	2001.714	3130	2001.714	3132.5	2001.714	4320	2001.714	3462.5
2001.715	4497.5	2001.715	2870	2001.715	2850	2001.715	4117.5	2001.715	3242.5
2001.716	4135	2001.716	2575	2001.716	2597.5	2001.716	3777.5	2001.716	2972.5
2001.717	3930	2001.717	2237.5	2001.717	2410	2001.717	3582.5	2001.717	2725
2001.718	3580	2001.718	1992.5	2001.718	2140	2001.718	3242.5	2001.718	2370
2001.719	3280	2001.719	1615	2001.719	1840	2001.719	3002.5	2001.719	2035
2001.72	3035	2001.72	1452.5	2001.72	1757.5	2001.72	2780	2001.72	1790
2001.721	2685	2001.721	1250	2001.721	1487.5	2001.721	2550	2001.721	1487.5
2001.722	2467.5	2001.722	1145	2001.722	1337.5	2001.722	2255	2001.722	1290
2001.723	2270	2001.723	937.5	2001.723	1125	2001.723	2025	2001.723	1032.5
2001.724	2025	2001.724	812.5	2001.724	870	2001.724	1777.5	2001.724	755
2001.725	1865	2001.725	660	2001.725	797.5	2001.725	1562.5	2001.725	660
2001.726	1750	2001.726	590	2001.726	695	2001.726	1552.5	2001.726	542.5
2001.727	1640	2001.727	507.5	2001.727	535	2001.727	1327.5	2001.727	442.5
2001.728	1562.5	2001.728	435	2001.728	505	2001.728	1262.5	2001.728	287.5
2001.729	1395	2001.729	282.5	2001.729	370	2001.729	997.5	2001.729	190
2001.73	1377.5	2001.73	317.5	2001.73	380	2001.73	985	2001.73	105
2001.731	1275	2001.731	197.5	2001.731	290	2001.731	877.5	2001.731	-10
2001.732	1145	2001.732	42.5	2001.732	110	2001.732	625	2001.732	-115
2001.733	1025	2001.733	-17.5	2001.733	-42.5	2001.733	520	2001.733	-177.5
2001.734	937.5	2001.734	-187.5	2001.734	-130	2001.734	212.5	2001.734	-417.5
2001.735	617.5	2001.735	-522.5	2001.735	-355	2001.735	-37.5	2001.735	-680
2001.736	282.5	2001.736	-715	2001.736	-665	2001.736	-452.5	2001.736	-960
2001.737	-60	2001.737	-922.5	2001.737	-982.5	2001.737	-662.5	2001.737	-1222.5
2001.738	-307.5	2001.738	-1110	2001.738	-1230	2001.738	-805	2001.738	-1442.5
2001.739	-617.5	2001.739	-1295	2001.739	-1390	2001.739	-1040	2001.739	-1692.5
2001.74	-905	2001.74	-1545	2001.74	-1677.5	2001.74	-1357.5	2001.74	-2040
2001.741	-1137.5	2001.741	-1772.5	2001.741	-1875	2001.741	-1690	2001.741	-2300
2001.742	-1432.5	2001.742	-1932.5	2001.742	-2100	2001.742	-1792.5	2001.742	-2465
2001.743	-1582.5	2001.743	-2027.5	2001.743	-2195	2001.743	-1957.5	2001.743	-2595
2001.744	-1712.5	2001.744	-2130	2001.744	-2312.5	2001.744	-2077.5	2001.744	-2785
2001.745	-1900	2001.745	-2255	2001.745	-2350	2001.745	-2277.5	2001.745	-2915
2001.746	-1995	2001.746	-2382.5	2001.746	-2537.5	2001.746	-2455	2001.746	-3040
2001.747	-2137.5	2001.747	-2430	2001.747	-2572.5	2001.747	-2445	2001.747	-3077.5
2001.748	-2172.5	2001.748	-2492.5	2001.748	-2607.5	2001.748	-2570	2001.748	-3150
2001.749	-2177.5	2001.749	-2587.5	2001.749	-2707.5	2001.749	-2500	2001.749	-3105
2001.75	-2157.5	2001.75	-2652.5	2001.75	-2682.5	2001.75	-2635	2001.75	-3102.5
2001.751	-2170	2001.751	-2705	2001.751	-2755	2001.751	-2692.5	2001.751	-3122.5
2001.752	-2260	2001.752	-2617.5	2001.752	-2750	2001.752	-2835	2001.752	-3195
2001.753	-2292.5	2001.753	-2670	2001.753	-2947.5	2001.753	-2915	2001.753	-3235
2001.754	-2432.5	2001.754	-2805	2001.754	-3035	2001.754	-3122.5	2001.754	-3385
2001.755	-2545	2001.755	-2875	2001.755	-3142.5	2001.755	-3200	2001.755	-3452.5
2001.756	-2725	2001.756	-3052.5	2001.756	-3287.5	2001.756	-3437.5	2001.756	-3627.5
2001.757	-2935	2001.757	-3207.5	2001.757	-3462.5	2001.757	-3560	2001.757	-3785
2001.758	-3120	2001.758	-3340	2001.758	-3617.5	2001.758	-3650	2001.758	-3927.5
2001.759	-3305	2001.759	-3427.5	2001.759	-3835	2001.759	-3802.5	2001.759	-4137.5
2001.76	-3530	2001.76	-3572.5	2001.76	-3932.5	2001.76	-3867.5	2001.76	-4262.5
2001.761	-3632.5	2001.761	-3697.5	2001.761	-3980	2001.761	-4040	2001.761	-4317.5
2001.762	-3825	2001.762	-3832.5	2001.762	-4192.5	2001.762	-4027.5	2001.762	-4482.5
2001.763	-3840	2001.763	-3807.5	2001.763	-4167.5	2001.763	-4227.5	2001.763	-4575
2001.764	-3947.5	2001.764	-3910	2001.764	-4225	2001.764	-4105	2001.764	-4590
2001.765	-3905	2001.765	-3922.5	2001.765	-4180	2001.765	-4215	2001.765	-4637.5
2001.766	-3925	2001.766	-3877.5	2001.766	-4122.5	2001.766	-4220	2001.766	-4530
2001.767	-3905	2001.767	-3960	2001.767	-4187.5	2001.767	-4170	2001.767	-4522.5
2001.768	-3805	2001.768	-3902.5	2001.768	-4077.5	2001.768	-4082.5	2001.768	-4485
2001.769	-3700	2001.769	-3842.5	2001.769	-4070	2001.769	-4140	2001.769	-4427.5
2001.77	-3712.5	2001.77	-3865	2001.77	-4017.5	2001.77	-4072.5	2001.77	-4340
2001.771	-3652.5	2001.771	-3907.5	2001.771	-3945	2001.771	-4127.5	2001.771	-4257.5
2001.772	-3592.5	2001.772	-3885	2001.772	-3937.5	2001.772	-4130	2001.772	-4180
2001.773	-3597.5	2001.773	-3807.5	2001.773	-3967.5	2001.773	-4010	2001.773	-4247.5
2001.774	-3592.5	2001.774	-3900	2001.774	-3997.5	2001.774	-4062.5	2001.774	-4287.5
2001.775	-3662.5	2001.775	-3925	2001.775	-4045	2001.775	-4177.5	2001.775	-4290
2001.776	-3765	2001.776	-3967.5	2001.776	-4197.5	2001.776	-4327.5	2001.776	-4385
2001.777	-3890	2001.777	-3975	2001.777	-4257.5	2001.777	-4295	2001.777	-4455
2001.778	-3990	2001.778	-4065	2001.778	-4295	2001.778	-4287.5	2001.778	-4580
2001.779	-4170	2001.779	-4152.5	2001.779	-4397.5	2001.779	-4407.5	2001.779	-4650
2001.78	-4212.5	2001.78	-4112.5	2001.78	-4470	2001.78	-4490	2001.78	-4737.5
2001.781	-4330	2001.781	-4207.5	2001.781	-4530	2001.781	-4507.5	2001.781	-4785
2001.782	-4370	2001.782	-4212.5	2001.782	-4475	2001.782	-4437.5	2001.782	-4800
2001.783	-4302.5	2001.783	-4192.5	2001.783	-4372.5	2001.783	-4502.5	2001.783	-4792.5
2001.784	-4300	2001.784	-4077.5	2001.784	-4385	2001.784	-4485	2001.784	-4765
2001.785	-4315	2001.785	-4080	2001.785	-4407.5	2001.785	-4452.5	2001.785	-4727.5
2001.786	-4215	2001.786	-4082.5	2001.786	-4305	2001.786	-4480	2001.786	-4742.5
2001.787	-4157.5	2001.787	-4010	2001.787	-4222.5	2001.787	-4410	2001.787	-4647.5
2001.788	-4030	2001.788	-4007.5	2001.788	-4180	2001.788	-4310	2001.788	-4540
2001.789	-3935	2001.789	-3972.5	2001.789	-4127.5	2001.789	-4177.5	2001.789	-4462.5
2001.79	-3930	2001.79	-3910	2001.79	-4140	2001.79	-4340	2001.79	-4400
2001.791	-3822.5	2001.791	-3857.5	2001.791	-4017.5	2001.791	-4215	2001.791	-4282.5
2001.792	-3757.5	2001.792	-3837.5	2001.792	-3955	2001.792	-4025	2001.792	-4225
2001.793	-3735	2001.793	-3812.5	2001.793	-3840	2001.793	-4077.5	2001.793	-4217.5
2001.794	-3682.5	2001.794	-3847.5	2001.794	-3877.5	2001.794	-4112.5	2001.794	-4172.5
2001.795	-3732.5	2001.795	-3767.5	2001.795	-3940	2001.795	-4157.5	2001.795	-4142.5
2001.796	-3787.5	2001.796	-3860	2001.796	-3975	2001.796	-4130	2001.796	-4200
2001.797	-3825	2001.797	-3837.5	2001.797	-4040	2001.797	-4222.5	2001.797	-4252.5
2001.798	-3932.5	2001.798	-3877.5	2001.798	-4052.5	2001.798	-4310	2001.798	-4315
2001.799	-4142.5	2001.799	-3992.5	2001.799	-4115	2001.799	-4277.5	2001.799	-4400
2001.8	-4235	2001.8	-3967.5	2001.8	-4172.5	2001.8	-4290	2001.8	-4505
2001.801	-4340	2001.801	-4107.5	2001.801	-4260	2001.801	-4452.5	2001.801	-4597.5
2001.802	-4417.5	2001.802	-4097.5	2001.802	-4252.5	2001.802	-4420	2001.802	-4637.5
2001.803	-4417.5	2001.803	-4050	2001.803	-4227.5	2001.803	-4357.5	2001.803	-4652.5
2001.804	-4382.5	2001.804	-4112.5	2001.804	-4252.5	2001.804	-4405	2001.804	-4627.5
2001.805	-4322.5	2001.805	-3987.5	2001.805	-4127.5	2001.805	-4265	2001.805	-4562.5
2001.806	-4245	2001.806	-3895	2001.806	-3995	2001.806	-4137.5	2001.806	-4432.5
2001.807	-4035	2001.807	-3857.5	2001.807	-3852.5	2001.807	-4030	2001.807	-4372.5
2001.808	-3945	2001.808	-3782.5	2001.808	-3802.5	2001.808	-3927.5	2001.808	-4240
2001.809	-3862.5	2001.809	-3717.5	2001.809	-3625	2001.809	-3967.5	2001.809	-4205
2001.81	-3767.5	2001.81	-3677.5	2001.81	-3642.5	2001.81	-3850	2001.81	-4077.5
2001.811	-3612.5	2001.811	-3542.5	2001.811	-3542.5	2001.811	-3802.5	2001.811	-4002.5
2001.812	-3470	2001.812	-3487.5	2001.812	-3482.5	2001.812	-3740	2001.812	-3902.5
2001.813	-3512.5	2001.813	-3522.5	2001.813	-3517.5	2001.813	-3807.5	2001.813	-3860
2001.814	-3462.5	2001.814	-3537.5	2001.814	-3442.5	2001.814	-3802.5	2001.814	-3807.5
2001.815	-3485	2001.815	-3572.5	2001.815	-3510	2001.815	-3820	2001.815	-3842.5
2001.816	-3562.5	2001.816	-3592.5	2001.816	-3550	2001.816	-3827.5	2001.816	-3897.5
2001.817	-3657.5	2001.817	-3565	2001.817	-3645	2001.817	-3780	2001.817	-3927.5
2001.818	-3825	2001.818	-3712.5	2001.818	-3707.5	2001.818	-3825	2001.818	-4085
2001.819	-4012.5	2001.819	-3797.5	2001.819	-3860	2001.819	-4037.5	2001.819	-4257.5
2001.82	-4030	2001.82	-3767.5	2001.82	-3837.5	2001.82	-4040	2001.82	-4247.5
2001.821	-4167.5	2001.821	-3852.5	2001.821	-3860	2001.821	-4142.5	2001.821	-4337.5
2001.822	-4210	2001.822	-3800	2001.822	-3892.5	2001.822	-4092.5	2001.822	-4382.5
2001.823	-4177.5	2001.823	-3825	2001.823	-3837.5	2001.823	-4145	2001.823	-4362.5
2001.824	-4275	2001.824	-3880	2001.824	-3870	2001.824	-4140	2001.824	-4415
2001.825	-4195	2001.825	-3880	2001.825	-3742.5	2001.825	-4085	2001.825	-4377.5
2001.826	-4080	2001.826	-3780	2001.826	-3772.5	2001.826	-4060	2001.826	-4300
2001.827	-3990	2001.827	-3730	2001.827	-3630	2001.827	-3882.5	2001.827	-4167.5
2001.828	-3822.5	2001.828	-3627.5	2001.828	-3530	2001.828	-3847.5	2001.828	-4117.5
2001.829	-3777.5	2001.829	-3560	2001.829	-3440	2001.829	-3745	2001.829	-4052.5
2001.83	-3610	2001.83	-3465	2001.83	-3352.5	2001.83	-3587.5	2001.83	-3965
2001.831	-3600	2001.831	-3367.5	2001.831	-3287.5	2001.831	-3575	2001.831	-3887.5
2001.832	-3490	2001.832	-3392.5	2001.832	-3197.5	2001.832	-3515	2001.832	-3785
2001.833	-3427.5	2001.833	-3440	2001.833	-3190	2001.833	-3557.5	2001.833	-3732.5
2001.834	-3437.5	2001.834	-3370	2001.834	-3165	2001.834	-3567.5	2001.834	-3642.5
2001.835	-3450	2001.835	-3420	2001.835	-3240	2001.835	-3610	2001.835	-3682.5
2001.836	-3562.5	2001.836	-3447.5	2001.836	-3207.5	2001.836	-3577.5	2001.836	-3697.5
2001.837	-3592.5	2001.837	-3472.5	2001.837	-3215	2001.837	-3615	2001.837	-3645
2001.838	-3745	2001.838	-3437.5	2001.838	-3337.5	2001.838	-3652.5	2001.838	-3762.5
2001.839	-3797.5	2001.839	-3455	2001.839	-3292.5	2001.839	-3652.5	2001.839	-3840
2001.84	-3832.5	2001.84	-3510	2001.84	-3320	2001.84	-3702.5	2001.84	-3930
2001.841	-3917.5	2001.841	-3595	2001.841	-3397.5	2001.841	-3740	2001.841	-3975
2001.842	-3975	2001.842	-3560	2001.842	-3372.5	2001.842	-3805	2001.842	-4027.5
2001.843	-4035	2001.843	-3690	2001.843	-3387.5	2001.843	-3725	2001.843	-4020
2001.844	-4030	2001.844	-3620	2001.844	-3367.5	2001.844	-3725	2001.844	-3997.5
2001.845	-3987.5	2001.845	-3640	2001.845	-3267.5	2001.845	-3705	2001.845	-3957.5
2001.846	-3810	2001.846	-3550	2001.846	-3212.5	2001.846	-3492.5	2001.846	-3862.5
2001.847	-3767.5	2001.847	-3590	2001.847	-3135	2001.847	-3422.5	2001.847	-3775
2001.848	-3612.5	2001.848	-3495	2001.848	-2965	2001.848	-3402.5	2001.848	-3682.5
2001.849	-3467.5	2001.849	-3430	2001.849	-2832.5	2001.849	-3287.5	2001.849	-3552.5
2001.85	-3375	2001.85	-3320	2001.85	-2725	2001.85	-3257.5	2001.85	-3472.5
2001.851	-3167.5	2001.851	-3185	2001.851	-2605	2001.851	-3180	2001.851	-3322.5
2001.852	-3112.5	2001.852	-3242.5	2001.852	-2607.5	2001.852	-3130	2001.852	-3187.5
2001.853	-2972.5	2001.853	-3205	2001.853	-2467.5	2001.853	-2925	2001.853	-3067.5
2001.854	-2975	2001.854	-3127.5	2001.854	-2475	2001.854	-2937.5	2001.854	-2985
2001.855	-2960	2001.855	-3117.5	2001.855	-2442.5	2001.855	-3027.5	2001.855	-2977.5
2001.856	-3055	2001.856	-3215	2001.856	-2530	2001.856	-2977.5	2001.856	-3107.5
2001.857	-3212.5	2001.857	-3387.5	2001.857	-2545	2001.857	-3065	2001.857	-3147.5
2001.858	-3297.5	2001.858	-3547.5	2001.858	-2657.5	2001.858	-3117.5	2001.858	-3260
2001.859	-3405	2001.859	-3677.5	2001.859	-2762.5	2001.859	-3137.5	2001.859	-3352.5
2001.86	-3487.5	2001.86	-3775	2001.86	-2740	2001.86	-3215	2001.86	-3440
2001.861	-3657.5	2001.861	-3910	2001.861	-2772.5	2001.861	-3320	2001.861	-3477.5
2001.862	-3817.5	2001.862	-4055	2001.862	-2802.5	2001.862	-3390	2001.862	-3525
2001.863	-3857.5	2001.863	-4140	2001.863	-2880	2001.863	-3385	2001.863	-3602.5
2001.864	-3885	2001.864	-4230	2001.864	-2790	2001.864	-3377.5	2001.864	-3612.5
2001.865	-3812.5	2001.865	-4245	2001.865	-2737.5	2001.865	-3382.5	2001.865	-3575
2001.866	-3762.5	2001.866	-4255	2001.866	-2727.5	2001.866	-3250	2001.866	-3465
2001.867	-3770	2001.867	-4255	2001.867	-2675	2001.867	-3210	2001.867	-3460
2001.868	-3680	2001.868	-4197.5	2001.868	-2492.5	2001.868	-3055	2001.868	-3317.5
2001.869	-3545	2001.869	-4127.5	2001.869	-2512.5	2001.869	-3070	2001.869	-3207.5
2001.87	-3432.5	2001.87	-3965	2001.87	-2367.5	2001.87	-3007.5	2001.87	-3125
2001.871	-3375	2001.871	-3875	2001.871	-2352.5	2001.871	-2830	2001.871	-3055
2001.872	-3260	2001.872	-3602.5	2001.872	-2155	2001.872	-2805	2001.872	-2902.5
2001.873	-3245	2001.873	-3575	2001.873	-2185	2001.873	-2825	2001.873	-2805
2001.874	-3172.5	2001.874	-3405	2001.874	-2147.5	2001.874	-2892.5	2001.874	-2787.5
2001.875	-3260	2001.875	-3315	2001.875	-2202.5	2001.875	-2955	2001.875	-2817.5
2001.876	-3350	2001.876	-3297.5	2001.876	-2252.5	2001.876	-2987.5	2001.876	-2790
2001.877	-3447.5	2001.877	-3245	2001.877	-2262.5	2001.877	-3017.5	2001.877	-2812.5
2001.878	-3560	2001.878	-3172.5	2001.878	-2475	2001.878	-3092.5	2001.878	-2950
2001.879	-3687.5	2001.879	-3257.5	2001.879	-2515	2001.879	-3245	2001.879	-3042.5
2001.88	-3780	2001.88	-3175	2001.88	-2575	2001.88	-3217.5	2001.88	-3080
2001.881	-3962.5	2001.881	-3215	2001.881	-2592.5	2001.881	-3300	2001.881	-3190
2001.882	-4022.5	2001.882	-3207.5	2001.882	-2630	2001.882	-3382.5	2001.882	-3180
2001.883	-4037.5	2001.883	-3060	2001.883	-2587.5	2001.883	-3340	2001.883	-3185
2001.884	-4045	2001.884	-2940	2001.884	-2447.5	2001.884	-3330	2001.884	-3152.5
2001.885	-4080	2001.885	-2862.5	2001.885	-2475	2001.885	-3160	2001.885	-3175
2001.886	-3962.5	2001.886	-2797.5	2001.886	-2372.5	2001.886	-3205	2001.886	-3060
2001.887	-3907.5	2001.887	-2705	2001.887	-2260	2001.887	-3155	2001.887	-2920
2001.888	-3840	2001.888	-2542.5	2001.888	-2257.5	2001.888	-3127.5	2001.888	-2805
2001.889	-3867.5	2001.889	-2542.5	2001.889	-2202.5	2001.889	-3105	2001.889	-2720
2001.89	-3730	2001.89	-2505	2001.89	-2115	2001.89	-3140	2001.89	-2712.5
2001.891	-3640	2001.891	-2477.5	2001.891	-2080	2001.891	-3107.5	2001.891	-2552.5
2001.892	-3597.5	2001.892	-2412.5	2001.892	-2025	2001.892	-3012.5	2001.892	-2547.5
2001.893	-3592.5	2001.893	-2315	2001.893	-2032.5	2001.893	-3000	2001.893	-2407.5
2001.894	-3500	2001.894	-2315	2001.894	-1967.5	2001.894	-3010	2001.894	-2287.5
2001.895	-3592.5	2001.895	-2345	2001.895	-2032.5	2001.895	-2997.5	2001.895	-2327.5
2001.896	-3675	2001.896	-2380	2001.896	-2180	2001.896	-3105	2001.896	-2395
2001.897	-3707.5	2001.897	-2367.5	2001.897	-2177.5	2001.897	-3155	2001.897	-2455
2001.898	-3795	2001.898	-2380	2001.898	-2270	2001.898	-3152.5	2001.898	-2480
2001.899	-3855	2001.899	-2372.5	2001.899	-2297.5	2001.899	-3292.5	2001.899	-2565
2001.9	-4017.5	2001.9	-2412.5	2001.9	-2265	2001.9	-3340	2001.9	-2637.5
2001.901	-4077.5	2001.901	-2470	2001.901	-2272.5	2001.901	-3410	2001.901	-2675
2001.902	-4127.5	2001.902	-2357.5	2001.902	-2332.5	2001.902	-3447.5	2001.902	-2672.5
2001.903	-4077.5	2001.903	-2420	2001.903	-2300	2001.903	-3467.5	2001.903	-2780
2001.904	-4037.5	2001.904	-2320	2001.904	-2315	2001.904	-3315	2001.904	-2700
2001.905	-3980	2001.905	-2355	2001.905	-2282.5	2001.905	-3282.5	2001.905	-2607.5
2001.906	-3827.5	2001.906	-2205	2001.906	-2130	2001.906	-3232.5	2001.906	-2492.5
2001.907	-3807.5	2001.907	-2192.5	2001.907	-1930	2001.907	-3275	2001.907	-2420
2001.908	-3670	2001.908	-2180	2001.908	-1865	2001.908	-3222.5	2001.908	-2365
2001.909	-3582.5	2001.909	-2155	2001.909	-1835	2001.909	-3197.5	2001.909	-2340
2001.91	-3562.5	2001.91	-2100	2001.91	-1787.5	2001.91	-3225	2001.91	-2305
2001.911	-3427.5	2001.911	-2052.5	2001.911	-1795	2001.911	-3327.5	2001.911	-2202.5
2001.912	-3347.5	2001.912	-2062.5	2001.912	-1757.5	2001.912	-3267.5	2001.912	-2132.5
2001.913	-3265	2001.913	-2070	2001.913	-1710	2001.913	-3245	2001.913	-2067.5
2001.914	-3240	2001.914	-1987.5	2001.914	-1822.5	2001.914	-3152.5	2001.914	-2082.5
2001.915	-3230	2001.915	-1982.5	2001.915	-1802.5	2001.915	-3272.5	2001.915	-2087.5
2001.916	-3342.5	2001.916	-1962.5	2001.916	-1865	2001.916	-3275	2001.916	-2047.5
2001.917	-3420	2001.917	-2082.5	2001.917	-1957.5	2001.917	-3362.5	2001.917	-2117.5
2001.918	-3547.5	2001.918	-2142.5	2001.918	-2067.5	2001.918	-3435	2001.918	-2230
2001.919	-3575	2001.919	-2082.5	2001.919	-1925	2001.919	-3385	2001.919	-2217.5
2001.92	-3590	2001.92	-2162.5	2001.92	-2030	2001.92	-3455	2001.92	-2297.5
2001.921	-3747.5	2001.921	-2135	2001.921	-1982.5	2001.921	-3430	2001.921	-2382.5
2001.922	-3775	2001.922	-2170	2001.922	-2065	2001.922	-3525	2001.922	-2377.5
2001.923	-3765	2001.923	-2220	2001.923	-2085	2001.923	-3365	2001.923	-2400
2001.924	-3725	2001.924	-2205	2001.924	-2050	2001.924	-3425	2001.924	-2367.5
2001.925	-3725	2001.925	-2195	2001.925	-2022.5	2001.925	-3335	2001.925	-2357.5
2001.926	-3595	2001.926	-2132.5	2001.926	-1870	2001.926	-3332.5	2001.926	-2280
2001.927	-3452.5	2001.927	-2110	2001.927	-1792.5	2001.927	-3312.5	2001.927	-2180
2001.928	-3395	2001.928	-1970	2001.928	-1680	2001.928	-3117.5	2001.928	-1980
2001.929	-3227.5	2001.929	-1857.5	2001.929	-1605	2001.929	-3092.5	2001.929	-1832.5
2001.93	-3062.5	2001.93	-1802.5	2001.93	-1530	2001.93	-2902.5	2001.93	-1772.5
2001.931	-2962.5	2001.931	-1782.5	2001.931	-1502.5	2001.931	-2862.5	2001.931	-1702.5
2001.932	-2842.5	2001.932	-1712.5	2001.932	-1415	2001.932	-2950	2001.932	-1597.5
2001.933	-2815	2001.933	-1735	2001.933	-1385	2001.933	-2927.5	2001.933	-1572.5
2001.934	-2787.5	2001.934	-1697.5	2001.934	-1365	2001.934	-2832.5	2001.934	-1565
2001.935	-2787.5	2001.935	-1675	2001.935	-1340	2001.935	-2927.5	2001.935	-1545
2001.936	-2867.5	2001.936	-1697.5	2001.936	-1497.5	2001.936	-3007.5	2001.936	-1635
2001.937	-2902.5	2001.937	-1772.5	2001.937	-1535	2001.937	-3017.5	2001.937	-1702.5
2001.938	-2995	2001.938	-1827.5	2001.938	-1680	2001.938	-3062.5	2001.938	-1695
2001.939	-3092.5	2001.939	-1892.5	2001.939	-1675	2001.939	-3187.5	2001.939	-1747.5
2001.94	-3095	2001.94	-1830	2001.94	-1690	2001.94	-3047.5	2001.94	-1760
2001.941	-3130	2001.941	-1802.5	2001.941	-1717.5	2001.941	-3140	2001.941	-1792.5
2001.942	-3080	2001.942	-1880	2001.942	-1672.5	2001.942	-3060	2001.942	-1815
2001.943	-3130	2001.943	-1780	2001.943	-1547.5	2001.943	-3020	2001.943	-1782.5
2001.944	-3130	2001.944	-1755	2001.944	-1570	2001.944	-2962.5	2001.944	-1772.5
2001.945	-3000	2001.945	-1750	2001.945	-1477.5	2001.945	-2872.5	2001.945	-1692.5
2001.946	-2927.5	2001.946	-1715	2001.946	-1325	2001.946	-2855	2001.946	-1655
2001.947	-2870	2001.947	-1630	2001.947	-1327.5	2001.947	-2775	2001.947	-1575
2001.948	-2682.5	2001.948	-1580	2001.948	-1242.5	2001.948	-2715	2001.948	-1407.5
2001.949	-2655	2001.949	-1535	2001.949	-1260	2001.949	-2780	2001.949	-1412.5
2001.95	-2542.5	2001.95	-1595	2001.95	-1117.5	2001.95	-2567.5	2001.95	-1357.5
2001.951	-2380	2001.951	-1532.5	2001.951	-1100	2001.951	-2517.5	2001.951	-1230
2001.952	-2355	2001.952	-1500	2001.952	-1150	2001.952	-2607.5	2001.952	-1232.5
2001.953	-2295	2001.953	-1462.5	2001.953	-1087.5	2001.953	-2622.5	2001.953	-1152.5
2001.954	-2245	2001.954	-1490	2001.954	-1085	2001.954	-2577.5	2001.954	-1137.5
2001.955	-2297.5	2001.955	-1520	2001.955	-1210	2001.955	-2605	2001.955	-1150
2001.956	-2410	2001.956	-1582.5	2001.956	-1292.5	2001.956	-2737.5	2001.956	-1212.5
2001.957	-2467.5	2001.957	-1640	2001.957	-1275	2001.957	-2782.5	2001.957	-1282.5
2001.958	-2592.5	2001.958	-1660	2001.958	-1467.5	2001.958	-2707.5	2001.958	-1367.5
2001.959	-2637.5	2001.959	-1697.5	2001.959	-1395	2001.959	-2800	2001.959	-1445
2001.96	-2675	2001.96	-1732.5	2001.96	-1430	2001.96	-2835	2001.96	-1520
2001.961	-2815	2001.961	-1780	2001.961	-1562.5	2001.961	-3005	2001.961	-1620
2001.962	-2822.5	2001.962	-1770	2001.962	-1550	2001.962	-2877.5	2001.962	-1637.5
2001.963	-2750	2001.963	-1822.5	2001.963	-1507.5	2001.963	-2895	2001.963	-1637.5
2001.964	-2750	2001.964	-1777.5	2001.964	-1492.5	2001.964	-2777.5	2001.964	-1560
2001.965	-2742.5	2001.965	-1765	2001.965	-1415	2001.965	-2735	2001.965	-1610
2001.966	-2690	2001.966	-1697.5	2001.966	-1362.5	2001.966	-2677.5	2001.966	-1542.5
2001.967	-2570	2001.967	-1690	2001.967	-1435	2001.967	-2720	2001.967	-1497.5
2001.968	-2382.5	2001.968	-1567.5	2001.968	-1285	2001.968	-2490	2001.968	-1372.5
2001.969	-2272.5	2001.969	-1482.5	2001.969	-1162.5	2001.969	-2482.5	2001.969	-1240
2001.97	-2232.5	2001.97	-1417.5	2001.97	-1182.5	2001.97	-2435	2001.97	-1187.5
2001.971	-2067.5	2001.971	-1492.5	2001.971	-1162.5	2001.971	-2332.5	2001.971	-1097.5
2001.972	-2017.5	2001.972	-1420	2001.972	-1055	2001.972	-2437.5	2001.972	-1122.5
2001.973	-1987.5	2001.973	-1422.5	2001.973	-1057.5	2001.973	-2340	2001.973	-1070
2001.974	-1957.5	2001.974	-1450	2001.974	-1135	2001.974	-2460	2001.974	-1047.5
2001.975	-2012.5	2001.975	-1442.5	2001.975	-1057.5	2001.975	-2397.5	2001.975	-1020
2001.976	-2107.5	2001.976	-1440	2001.976	-1265	2001.976	-2490	2001.976	-1090
2001.977	-2145	2001.977	-1432.5	2001.977	-1252.5	2001.977	-2517.5	2001.977	-1132.5
2001.978	-2295	2001.978	-1532.5	2001.978	-1342.5	2001.978	-2640	2001.978	-1230
2001.979	-2402.5	2001.979	-1542.5	2001.979	-1370	2001.979	-2637.5	2001.979	-1242.5
2001.98	-2437.5	2001.98	-1527.5	2001.98	-1412.5	2001.98	-2617.5	2001.98	-1315
2001.981	-2502.5	2001.981	-1612.5	2001.981	-1435	2001.981	-2630	2001.981	-1415
2001.982	-2545	2001.982	-1627.5	2001.982	-1495	2001.982	-2642.5	2001.982	-1450
2001.983	-2537.5	2001.983	-1617.5	2001.983	-1477.5	2001.983	-2615	2001.983	-1490
2001.984	-2530	2001.984	-1597.5	2001.984	-1390	2001.984	-2552.5	2001.984	-1500
2001.985	-2497.5	2001.985	-1582.5	2001.985	-1420	2001.985	-2530	2001.985	-1435
2001.986	-2312.5	2001.986	-1475	2001.986	-1312.5	2001.986	-2440	2001.986	-1337.5
2001.987	-2160	2001.987	-1440	2001.987	-1217.5	2001.987	-2445	2001.987	-1277.5
2001.988	-2080	2001.988	-1412.5	2001.988	-1090	2001.988	-2397.5	2001.988	-1165
2001.989	-2030	2001.989	-1360	2001.989	-1117.5	2001.989	-2357.5	2001.989	-1085
2001.99	-1967.5	2001.99	-1362.5	2001.99	-1052.5	2001.99	-2255	2001.99	-1055
2001.991	-1752.5	2001.991	-1317.5	2001.991	-882.5	2001.991	-2135	2001.991	-927.5
2001.992	-1725	2001.992	-1215	2001.992	-890	2001.992	-2102.5	2001.992	-915
2001.993	-1667.5	2001.993	-1220	2001.993	-880	2001.993	-2137.5	2001.993	-850
2001.994	-1632.5	2001.994	-1215	2001.994	-945	2001.994	-2247.5	2001.994	-820
2001.995	-1610	2001.995	-1227.5	2001.995	-860	2001.995	-2130	2001.995	-802.5
2001.996	-1722.5	2001.996	-1282.5	2001.996	-972.5	2001.996	-2192.5	2001.996	-877.5
2001.997	-1765	2001.997	-1225	2001.997	-1020	2001.997	-2222.5	2001.997	-870
2001.998	-1872.5	2001.998	-1312.5	2001.998	-1167.5	2001.998	-2220	2001.998	-995
2001.999	-1887.5	2001.999	-1392.5	2001.999	-1080	2001.999	-2285	2001.999	-1055
2002	-1887.5	2002	-1357.5	2002	-1160	2002	-2307.5	2002	-1065
2002.001	-1992.5	2002.001	-1387.5	2002.001	-1160	2002.001	-2382.5	2002.001	-1142.5
2002.002	-2005	2002.002	-1407.5	2002.002	-1255	2002.002	-2290	2002.002	-1187.5
2002.003	-2065	2002.003	-1502.5	2002.003	-1217.5	2002.003	-2397.5	2002.003	-1232.5
2002.004	-2087.5	2002.004	-1415	2002.004	-1220	2002.004	-2375	2002.004	-1300
2002.005	-2072.5	2002.005	-1435	2002.005	-1205	2002.005	-2307.5	2002.005	-1295
2002.006	-1952.5	2002.006	-1427.5	2002.006	-1137.5	2002.006	-2352.5	2002.006	-1217.5
2002.007	-1902.5	2002.007	-1367.5	2002.007	-1057.5	2002.007	-2250	2002.007	-1132.5
2002.008	-1720	2002.008	-1340	2002.008	-937.5	2002.008	-2120	2002.008	-1045
2002.009	-1602.5	2002.009	-1240	2002.009	-890	2002.009	-2190	2002.009	-985
2002.01	-1492.5	2002.01	-1127.5	2002.01	-857.5	2002.01	-2017.5	2002.01	-885
2002.011	-1417.5	2002.011	-1095	2002.011	-790	2002.011	-2042.5	2002.011	-785
2002.012	-1392.5	2002.012	-1030	2002.012	-865	2002.012	-2047.5	2002.012	-790
2002.013	-1315	2002.013	-1077.5	2002.013	-717.5	2002.013	-2032.5	2002.013	-697.5
2002.014	-1277.5	2002.014	-1022.5	2002.014	-870	2002.014	-1987.5	2002.014	-650
2002.015	-1367.5	2002.015	-1170	2002.015	-875	2002.015	-2055	2002.015	-820
2002.016	-1447.5	2002.016	-1212.5	2002.016	-950	2002.016	-2185	2002.016	-827.5
2002.017	-1567.5	2002.017	-1315	2002.017	-1002.5	2002.017	-2172.5	2002.017	-965
2002.018	-1750	2002.018	-1565	2002.018	-1302.5	2002.018	-2345	2002.018	-1212.5
2002.019	-1985	2002.019	-1700	2002.019	-1555	2002.019	-2615	2002.019	-1440
2002.02	-2107.5	2002.02	-1730	2002.02	-1692.5	2002.02	-2650	2002.02	-1530
2002.021	-2530	2002.021	-2170	2002.021	-2040	2002.021	-3095	2002.021	-1975
2002.022	-2852.5	2002.022	-2510	2002.022	-2347.5	2002.022	-3362.5	2002.022	-2367.5
2002.023	-2997.5	2002.023	-2675	2002.023	-2437.5	2002.023	-3605	2002.023	-2482.5
2002.024	-2847.5	2002.024	-2370	2002.024	-2207.5	2002.024	-3297.5	2002.024	-2255
2002.025	-2367.5	2002.025	-1890	2002.025	-1752.5	2002.025	-2832.5	2002.025	-1742.5
2002.026	-1792.5	2002.026	-1370	2002.026	-1242.5	2002.026	-2310	2002.026	-1190
2002.027	-1392.5	2002.027	-1045	2002.027	-832.5	2002.027	-2005	2002.027	-827.5
2002.028	-1010	2002.028	-707.5	2002.028	-380	2002.028	-1692.5	2002.028	-470
2002.029	-525	2002.029	-160	2002.029	92.5	2002.029	-1005	2002.029	57.5
2002.03	-370	2002.03	20	2002.03	270	2002.03	-847.5	2002.03	177.5
2002.031	-595	2002.031	-352.5	2002.031	-140	2002.031	-1152.5	2002.031	-95
2002.032	-485	2002.032	-275	2002.032	27.5	2002.032	-1107.5	2002.032	70
2002.033	-760	2002.033	-607.5	2002.033	-472.5	2002.033	-1465	2002.033	-315
2002.034	-1635	2002.034	-1602.5	2002.034	-1385	2002.034	-2435	2002.034	-1270
2002.035	-2402.5	2002.035	-2430	2002.035	-2177.5	2002.035	-3390	2002.035	-2072.5
2002.036	-1405	2002.036	-1330	2002.036	-1207.5	2002.036	-2290	2002.036	-1002.5
2002.037	-1267.5	2002.037	-1110	2002.037	-975	2002.037	-2060	2002.037	-882.5
2002.038	-1652.5	2002.038	-1462.5	2002.038	-1325	2002.038	-2305	2002.038	-1200
2002.039	-1685	2002.039	-1402.5	2002.039	-1185	2002.039	-2260	2002.039	-1237.5
2002.04	-1622.5	2002.04	-1370	2002.04	-1192.5	2002.04	-2285	2002.04	-1192.5
2002.041	-2107.5	2002.041	-1805	2002.041	-1562.5	2002.041	-2665	2002.041	-1670
2002.042	-2362.5	2002.042	-2042.5	2002.042	-1775	2002.042	-2997.5	2002.042	-1882.5
2002.043	-2370	2002.043	-2047.5	2002.043	-1830	2002.043	-2902.5	2002.043	-1950
2002.044	-2527.5	2002.044	-2187.5	2002.044	-2052.5	2002.044	-3035	2002.044	-2142.5
2002.045	-3220	2002.045	-2965	2002.045	-2672.5	2002.045	-3765	2002.045	-2825
2002.046	-3477.5	2002.046	-3170	2002.046	-2997.5	2002.046	-4060	2002.046	-3097.5
2002.047	-3642.5	2002.047	-3472.5	2002.047	-3250	2002.047	-4280	2002.047	-3300
2002.048	-3607.5	2002.048	-3515	2002.048	-3370	2002.048	-4450	2002.048	-3350
2002.049	-3535	2002.049	-3522.5	2002.049	-3285	2002.049	-4447.5	2002.049	-3372.5
2002.05	-3427.5	2002.05	-3417.5	2002.05	-3242.5	2002.05	-4300	2002.05	-3205
2002.051	-3357.5	2002.051	-3327.5	2002.051	-3105	2002.051	-4267.5	2002.051	-3085
2002.052	-3202.5	2002.052	-3210	2002.052	-3090	2002.052	-4127.5	2002.052	-2972.5
2002.053	-3102.5	2002.053	-3137.5	2002.053	-2985	2002.053	-4085	2002.053	-2877.5
2002.054	-2990	2002.054	-3067.5	2002.054	-2907.5	2002.054	-4045	2002.054	-2795
2002.055	-2992.5	2002.055	-3020	2002.055	-2842.5	2002.055	-4032.5	2002.055	-2687.5
2002.056	-2970	2002.056	-3010	2002.056	-2900	2002.056	-4037.5	2002.056	-2755
2002.057	-3000	2002.057	-2962.5	2002.057	-2857.5	2002.057	-4005	2002.057	-2727.5
2002.058	-2977.5	2002.058	-2965	2002.058	-2807.5	2002.058	-3865	2002.058	-2742.5
2002.059	-3015	2002.059	-2925	2002.059	-2812.5	2002.059	-3877.5	2002.059	-2747.5
2002.06	-2977.5	2002.06	-2902.5	2002.06	-2737.5	2002.06	-3842.5	2002.06	-2672.5
2002.061	-3005	2002.061	-2880	2002.061	-2740	2002.061	-3775	2002.061	-2665
2002.062	-2957.5	2002.062	-2807.5	2002.062	-2707.5	2002.062	-3620	2002.062	-2697.5
2002.063	-2940	2002.063	-2792.5	2002.063	-2692.5	2002.063	-3692.5	2002.063	-2602.5
2002.064	-2910	2002.064	-2747.5	2002.064	-2545	2002.064	-3530	2002.064	-2595
2002.065	-2770	2002.065	-2652.5	2002.065	-2472.5	2002.065	-3450	2002.065	-2520
2002.066	-2672.5	2002.066	-2567.5	2002.066	-2340	2002.066	-3302.5	2002.066	-2427.5
2002.067	-2490	2002.067	-2430	2002.067	-2245	2002.067	-3155	2002.067	-2272.5
2002.068	-2330	2002.068	-2305	2002.068	-2042.5	2002.068	-3060	2002.068	-2130
2002.069	-2187.5	2002.069	-2230	2002.069	-1955	2002.069	-2925	2002.069	-2010
2002.07	-2042.5	2002.07	-2092.5	2002.07	-1990	2002.07	-2857.5	2002.07	-1917.5
2002.071	-1940	2002.071	-2092.5	2002.071	-1827.5	2002.071	-2772.5	2002.071	-1747.5
2002.072	-1860	2002.072	-1977.5	2002.072	-1737.5	2002.072	-2790	2002.072	-1687.5
2002.073	-1822.5	2002.073	-1997.5	2002.073	-1810	2002.073	-2770	2002.073	-1662.5
2002.074	-1817.5	2002.074	-1987.5	2002.074	-1780	2002.074	-2772.5	2002.074	-1597.5
2002.075	-1767.5	2002.075	-1950	2002.075	-1800	2002.075	-2745	2002.075	-1587.5
2002.076	-1820	2002.076	-1990	2002.076	-1765	2002.076	-2787.5	2002.076	-1657.5
2002.077	-1882.5	2002.077	-2037.5	2002.077	-1837.5	2002.077	-2877.5	2002.077	-1662.5
2002.078	-2007.5	2002.078	-2075	2002.078	-1872.5	2002.078	-2885	2002.078	-1790
2002.079	-2205	2002.079	-2210	2002.079	-1977.5	2002.079	-2952.5	2002.079	-1925
2002.08	-2290	2002.08	-2310	2002.08	-2122.5	2002.08	-3190	2002.08	-2020
2002.081	-2837.5	2002.081	-2772.5	2002.081	-2600	2002.081	-3535	2002.081	-2547.5
2002.082	-3637.5	2002.082	-3695	2002.082	-3635	2002.082	-4355	2002.082	-3402.5
2002.083	-3675	2002.083	-3780	2002.083	-3755	2002.083	-4395	2002.083	-3417.5
2002.084	-1742.5	2002.084	-2097.5	2002.084	-2810	2002.084	-1997.5	2002.084	-1920
2002.085	1610	2002.085	602.5	2002.085	-1480	2002.085	2155	2002.085	265
2002.086	7762.5	2002.086	6095	2002.086	2360	2002.086	9285	2002.086	5192.5
2002.087	17232.5	2002.087	15017.5	2002.087	9712.5	2002.087	20312.5	2002.087	14100
2002.088	26635	2002.088	24747.5	2002.088	19795	2002.088	30507.5	2002.088	24205
2002.089	34345	2002.089	34280	2002.089	31007.5	2002.089	37150	2002.089	34000
2002.09	41245	2002.09	44085	2002.09	42297.5	2002.09	41217.5	2002.09	43015
2002.091	48970	2002.091	53640	2002.091	52515	2002.091	46197.5	2002.091	52335
2002.092	55795	2002.092	60165	2002.092	58405	2002.092	51920	2002.092	58952.5
2002.093	61457.5	2002.093	64845	2002.093	59032.5	2002.093	53842.5	2002.093	65942.5
2002.094	65230	2002.094	61147.5	2002.094	51047.5	2002.094	13512.5	2002.094	67960
2002.095	-15235	2002.095	-20950	2002.095	-18675	2002.095	-9715	2002.095	-21880
2002.096	-6710	2002.096	-10825	2002.096	-10070	2002.096	-3385	2002.096	-7987.5
2002.097	-780	2002.097	-5030	2002.097	-5455	2002.097	2615	2002.097	-1895
2002.098	3235	2002.098	-770	2002.098	-1525	2002.098	7762.5	2002.098	2485
2002.099	5982.5	2002.099	1962.5	2002.099	1090	2002.099	11857.5	2002.099	5392.5
2002.1	7725	2002.1	3312.5	2002.1	2400	2002.1	14480	2002.1	7015
2002.101	9050	2002.101	4297.5	2002.101	3227.5	2002.101	16600	2002.101	8155
2002.102	11225	2002.102	6065	2002.102	4710	2002.102	19497.5	2002.102	10305
2002.103	13602.5	2002.103	7880	2002.103	6347.5	2002.103	22352.5	2002.103	12555
2002.104	16132.5	2002.104	10110	2002.104	8272.5	2002.104	25017.5	2002.104	15040
2002.105	18782.5	2002.105	12517.5	2002.105	10372.5	2002.105	27325	2002.105	17515
2002.106	21187.5	2002.106	14957.5	2002.106	12492.5	2002.106	28835	2002.106	19840
2002.107	23162.5	2002.107	17412.5	2002.107	14637.5	2002.107	29745	2002.107	21850
2002.108	24587.5	2002.108	19497.5	2002.108	16842.5	2002.108	29992.5	2002.108	23297.5
2002.109	25482.5	2002.109	21117.5	2002.109	18645	2002.109	29752.5	2002.109	24182.5
2002.11	25862.5	2002.11	22267.5	2002.11	20037.5	2002.11	29282.5	2002.11	24650
2002.111	25890	2002.111	22887.5	2002.111	20960	2002.111	28682.5	2002.111	24705
2002.112	25567.5	2002.112	23072.5	2002.112	21385	2002.112	27797.5	2002.112	24502.5
2002.113	25005	2002.113	22845	2002.113	21387.5	2002.113	26867.5	2002.113	23952.5
2002.114	24242.5	2002.114	22475	2002.114	21117.5	2002.114	25752.5	2002.114	23312.5
2002.115	23337.5	2002.115	21895	2002.115	20625	2002.115	24612.5	2002.115	22452.5
2002.116	22442.5	2002.116	21112.5	2002.116	19865	2002.116	23610	2002.116	21560
2002.117	21412.5	2002.117	20267.5	2002.117	19022.5	2002.117	22540	2002.117	20545
2002.118	20312.5	2002.118	19385	2002.118	18137.5	2002.118	21397.5	2002.118	19552.5
2002.119	19365	2002.119	18572.5	2002.119	17162.5	2002.119	20370	2002.119	18555
2002.12	18405	2002.12	17712.5	2002.12	16255	2002.12	19300	2002.12	17607.5
2002.121	17480	2002.121	16815	2002.121	15500	2002.121	18345	2002.121	16580
2002.122	16577.5	2002.122	15890	2002.122	14590	2002.122	17357.5	2002.122	15617.5
2002.123	15802.5	2002.123	15100	2002.123	13877.5	2002.123	16632.5	2002.123	14867.5
2002.124	15067.5	2002.124	14325	2002.124	13200	2002.124	15802.5	2002.124	14140
2002.125	14357.5	2002.125	13665	2002.125	12662.5	2002.125	14990	2002.125	13412.5
2002.126	13735	2002.126	12937.5	2002.126	12035	2002.126	14215	2002.126	12747.5
2002.127	13137.5	2002.127	12335	2002.127	11417.5	2002.127	13625	2002.127	12200
2002.128	12660	2002.128	11705	2002.128	10962.5	2002.128	13055	2002.128	11630
2002.129	12135	2002.129	11057.5	2002.129	10372.5	2002.129	12395	2002.129	11022.5
2002.13	11472.5	2002.13	10455	2002.13	9855	2002.13	11820	2002.13	10445
2002.131	11110	2002.131	9912.5	2002.131	9415	2002.131	11177.5	2002.131	10032.5
2002.132	10605	2002.132	9377.5	2002.132	8900	2002.132	10632.5	2002.132	9510
2002.133	10170	2002.133	8895	2002.133	8362.5	2002.133	10137.5	2002.133	9012.5
2002.134	9805	2002.134	8347.5	2002.134	7915	2002.134	9642.5	2002.134	8562.5
2002.135	9290	2002.135	7882.5	2002.135	7472.5	2002.135	9185	2002.135	8097.5
2002.136	8785	2002.136	7350	2002.136	7015	2002.136	8622.5	2002.136	7600
2002.137	8272.5	2002.137	6915	2002.137	6505	2002.137	8182.5	2002.137	7132.5
2002.138	7800	2002.138	6487.5	2002.138	6120	2002.138	7670	2002.138	6722.5
2002.139	7447.5	2002.139	6072.5	2002.139	5705	2002.139	7352.5	2002.139	6297.5
2002.14	6990	2002.14	5715	2002.14	5350	2002.14	7040	2002.14	5890
2002.141	6557.5	2002.141	5240	2002.141	5080	2002.141	6432.5	2002.141	5400
2002.142	6162.5	2002.142	4910	2002.142	4647.5	2002.142	6147.5	2002.142	5037.5
2002.143	5857.5	2002.143	4580	2002.143	4382.5	2002.143	5820	2002.143	4710
2002.144	5580	2002.144	4290	2002.144	4172.5	2002.144	5530	2002.144	4422.5
2002.145	5335	2002.145	3982.5	2002.145	3957.5	2002.145	5310	2002.145	4172.5
2002.146	5117.5	2002.146	3732.5	2002.146	3715	2002.146	5087.5	2002.146	3915
2002.147	4992.5	2002.147	3507.5	2002.147	3572.5	2002.147	4902.5	2002.147	3727.5
2002.148	4892.5	2002.148	3310	2002.148	3475	2002.148	4700	2002.148	3585
2002.149	4680	2002.149	3135	2002.149	3330	2002.149	4472.5	2002.149	3380
2002.15	4595	2002.15	2957.5	2002.15	3190	2002.15	4402.5	2002.15	3232.5
2002.151	4442.5	2002.151	2735	2002.151	3065	2002.151	4072.5	2002.151	3120
2002.152	4232.5	2002.152	2510	2002.152	2825	2002.152	3800	2002.152	2940
2002.153	4002.5	2002.153	2225	2002.153	2590	2002.153	3572.5	2002.153	2685
2002.154	3832.5	2002.154	2100	2002.154	2442.5	2002.154	3385	2002.154	2505
2002.155	3557.5	2002.155	1802.5	2002.155	2182.5	2002.155	3037.5	2002.155	2255
2002.156	3270	2002.156	1580	2002.156	1907.5	2002.156	2747.5	2002.156	1980
2002.157	2952.5	2002.157	1365	2002.157	1747.5	2002.157	2545	2002.157	1670
2002.158	2567.5	2002.158	1150	2002.158	1485	2002.158	2160	2002.158	1395
2002.159	2310	2002.159	927.5	2002.159	1225	2002.159	1885	2002.159	1082.5
2002.16	1975	2002.16	725	2002.16	1007.5	2002.16	1615	2002.16	772.5
2002.161	1687.5	2002.161	507.5	2002.161	760	2002.161	1322.5	2002.161	555
2002.162	1477.5	2002.162	340	2002.162	545	2002.162	1177.5	2002.162	327.5
2002.163	1097.5	2002.163	125	2002.163	327.5	2002.163	910	2002.163	50
2002.164	992.5	2002.164	30	2002.164	252.5	2002.164	727.5	2002.164	-202.5
2002.165	815	2002.165	-107.5	2002.165	135	2002.165	517.5	2002.165	-322.5
2002.166	690	2002.166	-177.5	2002.166	20	2002.166	372.5	2002.166	-472.5
2002.167	555	2002.167	-345	2002.167	-25	2002.167	207.5	2002.167	-545
2002.168	542.5	2002.168	-352.5	2002.168	-147.5	2002.168	65	2002.168	-710
2002.169	477.5	2002.169	-562.5	2002.169	-292.5	2002.169	-127.5	2002.169	-852.5
2002.17	252.5	2002.17	-652.5	2002.17	-375	2002.17	-357.5	2002.17	-925
2002.171	190	2002.171	-802.5	2002.171	-527.5	2002.171	-525	2002.171	-1070
2002.172	17.5	2002.172	-890	2002.172	-660	2002.172	-620	2002.172	-1207.5
2002.173	-150	2002.173	-1030	2002.173	-880	2002.173	-850	2002.173	-1340
2002.174	-385	2002.174	-1262.5	2002.174	-947.5	2002.174	-992.5	2002.174	-1437.5
2002.175	-477.5	2002.175	-1350	2002.175	-1155	2002.175	-1242.5	2002.175	-1625
2002.176	-787.5	2002.176	-1550	2002.176	-1407.5	2002.176	-1500	2002.176	-1837.5
2002.177	-1030	2002.177	-1767.5	2002.177	-1602.5	2002.177	-1830	2002.177	-2110
2002.178	-1310	2002.178	-1920	2002.178	-1830	2002.178	-1980	2002.178	-2385
2002.179	-1517.5	2002.179	-2122.5	2002.179	-1927.5	2002.179	-2265	2002.179	-2577.5
2002.18	-1867.5	2002.18	-2302.5	2002.18	-2215	2002.18	-2460	2002.18	-2842.5
2002.181	-2097.5	2002.181	-2452.5	2002.181	-2382.5	2002.181	-2622.5	2002.181	-3075
2002.182	-2365	2002.182	-2677.5	2002.182	-2567.5	2002.182	-2915	2002.182	-3295
2002.183	-2500	2002.183	-2790	2002.183	-2725	2002.183	-3017.5	2002.183	-3445
2002.184	-2700	2002.184	-2892.5	2002.184	-2862.5	2002.184	-3077.5	2002.184	-3617.5
2002.185	-2742.5	2002.185	-2967.5	2002.185	-3042.5	2002.185	-3200	2002.185	-3697.5
2002.186	-2832.5	2002.186	-3095	2002.186	-3112.5	2002.186	-3390	2002.186	-3777.5
2002.187	-2955	2002.187	-3180	2002.187	-3130	2002.187	-3490	2002.187	-3877.5
2002.188	-2912.5	2002.188	-3232.5	2002.188	-3220	2002.188	-3457.5	2002.188	-3907.5
2002.189	-3000	2002.189	-3300	2002.189	-3245	2002.189	-3682.5	2002.189	-3870
2002.19	-3122.5	2002.19	-3417.5	2002.19	-3290	2002.19	-3740	2002.19	-3975
2002.191	-3100	2002.191	-3382.5	2002.191	-3335	2002.191	-3727.5	2002.191	-3952.5
2002.192	-3157.5	2002.192	-3440	2002.192	-3447.5	2002.192	-3922.5	2002.192	-3990
2002.193	-3187.5	2002.193	-3502.5	2002.193	-3517.5	2002.193	-3867.5	2002.193	-4072.5
2002.194	-3235	2002.194	-3572.5	2002.194	-3515	2002.194	-4060	2002.194	-4092.5
2002.195	-3365	2002.195	-3715	2002.195	-3710	2002.195	-4202.5	2002.195	-4192.5
2002.196	-3427.5	2002.196	-3802.5	2002.196	-3825	2002.196	-4250	2002.196	-4347.5
2002.197	-3612.5	2002.197	-3865	2002.197	-3955	2002.197	-4395	2002.197	-4427.5
2002.198	-3780	2002.198	-3977.5	2002.198	-4047.5	2002.198	-4380	2002.198	-4625
2002.199	-4012.5	2002.199	-4135	2002.199	-4225	2002.199	-4565	2002.199	-4730
2002.2	-4157.5	2002.2	-4222.5	2002.2	-4317.5	2002.2	-4690	2002.2	-4850
2002.201	-4257.5	2002.201	-4332.5	2002.201	-4400	2002.201	-4822.5	2002.201	-4970
2002.202	-4355	2002.202	-4472.5	2002.202	-4510	2002.202	-4910	2002.202	-5050
2002.203	-4470	2002.203	-4465	2002.203	-4452.5	2002.203	-4925	2002.203	-5122.5
2002.204	-4492.5	2002.204	-4497.5	2002.204	-4480	2002.204	-4837.5	2002.204	-5140
2002.205	-4462.5	2002.205	-4537.5	2002.205	-4515	2002.205	-4905	2002.205	-5072.5
2002.206	-4385	2002.206	-4440	2002.206	-4442.5	2002.206	-4825	2002.206	-5047.5
2002.207	-4400	2002.207	-4455	2002.207	-4430	2002.207	-4762.5	2002.207	-4962.5
2002.208	-4272.5	2002.208	-4450	2002.208	-4432.5	2002.208	-4817.5	2002.208	-4937.5
2002.209	-4297.5	2002.209	-4480	2002.209	-4365	2002.209	-4792.5	2002.209	-4867.5
2002.21	-4217.5	2002.21	-4425	2002.21	-4332.5	2002.21	-4917.5	2002.21	-4812.5
2002.211	-4122.5	2002.211	-4377.5	2002.211	-4285	2002.211	-4685	2002.211	-4752.5
2002.212	-4075	2002.212	-4445	2002.212	-4397.5	2002.212	-4800	2002.212	-4695
2002.213	-4095	2002.213	-4437.5	2002.213	-4385	2002.213	-4757.5	2002.213	-4760
2002.214	-4180	2002.214	-4460	2002.214	-4392.5	2002.214	-4930	2002.214	-4760
2002.215	-4282.5	2002.215	-4550	2002.215	-4507.5	2002.215	-5005	2002.215	-4810
2002.216	-4377.5	2002.216	-4582.5	2002.216	-4617.5	2002.216	-4987.5	2002.216	-4950
2002.217	-4467.5	2002.217	-4650	2002.217	-4720	2002.217	-5042.5	2002.217	-5020
2002.218	-4655	2002.218	-4687.5	2002.218	-4745	2002.218	-5120	2002.218	-5095
2002.219	-4705	2002.219	-4792.5	2002.219	-4755	2002.219	-5105	2002.219	-5157.5
2002.22	-4855	2002.22	-4827.5	2002.22	-4895	2002.22	-5220	2002.22	-5227.5
2002.221	-4935	2002.221	-4845	2002.221	-4917.5	2002.221	-5257.5	2002.221	-5337.5
2002.222	-5000	2002.222	-4870	2002.222	-4782.5	2002.222	-5232.5	2002.222	-5342.5
2002.223	-5047.5	2002.223	-4852.5	2002.223	-4885	2002.223	-5245	2002.223	-5412.5
2002.224	-5047.5	2002.224	-4867.5	2002.224	-4785	2002.224	-5247.5	2002.224	-5405
2002.225	-5040	2002.225	-4832.5	2002.225	-4852.5	2002.225	-5182.5	2002.225	-5372.5
2002.226	-4955	2002.226	-4805	2002.226	-4755	2002.226	-5075	2002.226	-5290
2002.227	-4892.5	2002.227	-4792.5	2002.227	-4702.5	2002.227	-5085	2002.227	-5202.5
2002.228	-4750	2002.228	-4687.5	2002.228	-4557.5	2002.228	-4880	2002.228	-5135
2002.229	-4660	2002.229	-4640	2002.229	-4405	2002.229	-4937.5	2002.229	-5067.5
2002.23	-4547.5	2002.23	-4545	2002.23	-4435	2002.23	-4852.5	2002.23	-5010
2002.231	-4475	2002.231	-4507.5	2002.231	-4372.5	2002.231	-4820	2002.231	-4945
2002.232	-4372.5	2002.232	-4525	2002.232	-4302.5	2002.232	-4777.5	2002.232	-4807.5
2002.233	-4325	2002.233	-4457.5	2002.233	-4322.5	2002.233	-4787.5	2002.233	-4735
2002.234	-4247.5	2002.234	-4340	2002.234	-4217.5	2002.234	-4810	2002.234	-4700
2002.235	-4312.5	2002.235	-4455	2002.235	-4307.5	2002.235	-4822.5	2002.235	-4730
2002.236	-4392.5	2002.236	-4482.5	2002.236	-4305	2002.236	-4800	2002.236	-4740
2002.237	-4497.5	2002.237	-4505	2002.237	-4432.5	2002.237	-4865	2002.237	-4782.5
2002.238	-4527.5	2002.238	-4540	2002.238	-4375	2002.238	-5022.5	2002.238	-4810
2002.239	-4607.5	2002.239	-4617.5	2002.239	-4437.5	2002.239	-4980	2002.239	-4977.5
2002.24	-4750	2002.24	-4685	2002.24	-4505	2002.24	-4990	2002.24	-4917.5
2002.241	-4800	2002.241	-4692.5	2002.241	-4510	2002.241	-4955	2002.241	-5067.5
2002.242	-4842.5	2002.242	-4657.5	2002.242	-4500	2002.242	-5005	2002.242	-5057.5
2002.243	-4877.5	2002.243	-4632.5	2002.243	-4537.5	2002.243	-5062.5	2002.243	-5022.5
2002.244	-4885	2002.244	-4652.5	2002.244	-4490	2002.244	-5000	2002.244	-5055
2002.245	-4805	2002.245	-4587.5	2002.245	-4320	2002.245	-4840	2002.245	-4977.5
2002.246	-4687.5	2002.246	-4567.5	2002.246	-4257.5	2002.246	-4780	2002.246	-4827.5
2002.247	-4497.5	2002.247	-4452.5	2002.247	-4132.5	2002.247	-4615	2002.247	-4760
2002.248	-4377.5	2002.248	-4402.5	2002.248	-3947.5	2002.248	-4557.5	2002.248	-4680
2002.249	-4212.5	2002.249	-4375	2002.249	-3997.5	2002.249	-4547.5	2002.249	-4575
2002.25	-4272.5	2002.25	-4262.5	2002.25	-3925	2002.25	-4535	2002.25	-4515
2002.251	-4035	2002.251	-4242.5	2002.251	-3830	2002.251	-4502.5	2002.251	-4437.5
2002.252	-4027.5	2002.252	-4175	2002.252	-3767.5	2002.252	-4475	2002.252	-4377.5
2002.253	-3935	2002.253	-4130	2002.253	-3832.5	2002.253	-4475	2002.253	-4295
2002.254	-3917.5	2002.254	-4120	2002.254	-3850	2002.254	-4347.5	2002.254	-4240
2002.255	-3950	2002.255	-4102.5	2002.255	-3822.5	2002.255	-4477.5	2002.255	-4282.5
2002.256	-3965	2002.256	-4135	2002.256	-3865	2002.256	-4447.5	2002.256	-4335
2002.257	-4110	2002.257	-4170	2002.257	-3947.5	2002.257	-4607.5	2002.257	-4445
2002.258	-4237.5	2002.258	-4225	2002.258	-4022.5	2002.258	-4577.5	2002.258	-4547.5
2002.259	-4245	2002.259	-4217.5	2002.259	-4010	2002.259	-4605	2002.259	-4527.5
2002.26	-4347.5	2002.26	-4165	2002.26	-4010	2002.26	-4640	2002.26	-4570
2002.261	-4432.5	2002.261	-4222.5	2002.261	-3985	2002.261	-4607.5	2002.261	-4572.5
2002.262	-4415	2002.262	-4270	2002.262	-4062.5	2002.262	-4637.5	2002.262	-4662.5
2002.263	-4537.5	2002.263	-4272.5	2002.263	-3945	2002.263	-4615	2002.263	-4667.5
2002.264	-4527.5	2002.264	-4280	2002.264	-3982.5	2002.264	-4532.5	2002.264	-4680
2002.265	-4460	2002.265	-4212.5	2002.265	-3955	2002.265	-4520	2002.265	-4632.5
2002.266	-4362.5	2002.266	-4202.5	2002.266	-3820	2002.266	-4447.5	2002.266	-4555
2002.267	-4265	2002.267	-4060	2002.267	-3800	2002.267	-4275	2002.267	-4465
2002.268	-4225	2002.268	-4040	2002.268	-3605	2002.268	-4220	2002.268	-4340
2002.269	-4072.5	2002.269	-4007.5	2002.269	-3507.5	2002.269	-4307.5	2002.269	-4285
2002.27	-3975	2002.27	-3857.5	2002.27	-3542.5	2002.27	-4140	2002.27	-4212.5
2002.271	-3930	2002.271	-3902.5	2002.271	-3510	2002.271	-4140	2002.271	-4107.5
