A1(X)	A1(Y)	A2(X)	A2(Y)	A3(X)	A3(Y)	B3(X)	B3(Y)	B2(X)	B2(Y)
2000.746	-3982.5	2000.746	-3900	2000.746	-3737.5	2000.746	-3670	2000.746	-3847.5
2000.747	-3902.5	2000.747	-3747.5	2000.747	-3650	2000.747	-3615	2000.747	-3712.5
2000.748	-3752.5	2000.748	-3527.5	2000.748	-3530	2000.748	-3450	2000.748	-3565
2000.749	-3582.5	2000.749	-3422.5	2000.749	-3452.5	2000.749	-3380	2000.749	-3470
2000.75	-3477.5	2000.75	-3212.5	2000.75	-3355	2000.75	-3310	2000.75	-3342.5
2000.751	-3320	2000.751	-3115	2000.751	-3245	2000.751	-3152.5	2000.751	-3155
2000.752	-3180	2000.752	-2995	2000.752	-3185	2000.752	-3132.5	2000.752	-3147.5
2000.753	-3155	2000.753	-2917.5	2000.753	-3075	2000.753	-3030	2000.753	-3042.5
2000.754	-3035	2000.754	-2800	2000.754	-2997.5	2000.754	-2947.5	2000.754	-2917.5
2000.755	-3005	2000.755	-2780	2000.755	-2935	2000.755	-2850	2000.755	-2852.5
2000.756	-2932.5	2000.756	-2747.5	2000.756	-2900	2000.756	-2817.5	2000.756	-2835
2000.757	-2950	2000.757	-2785	2000.757	-2842.5	2000.757	-2777.5	2000.757	-2817.5
2000.758	-2880	2000.758	-2737.5	2000.758	-2770	2000.758	-2722.5	2000.758	-2690
2000.759	-2930	2000.759	-2792.5	2000.759	-2702.5	2000.759	-2660	2000.759	-2750
2000.76	-2910	2000.76	-2732.5	2000.76	-2630	2000.76	-2577.5	2000.76	-2697.5
2000.761	-2817.5	2000.761	-2770	2000.761	-2550	2000.761	-2475	2000.761	-2705
2000.762	-2787.5	2000.762	-2720	2000.762	-2497.5	2000.762	-2410	2000.762	-2635
2000.763	-2712.5	2000.763	-2710	2000.763	-2437.5	2000.763	-2337.5	2000.763	-2530
2000.764	-2660	2000.764	-2705	2000.764	-2387.5	2000.764	-2340	2000.764	-2575
2000.765	-2642.5	2000.765	-2632.5	2000.765	-2375	2000.765	-2307.5	2000.765	-2492.5
2000.766	-2515	2000.766	-2465	2000.766	-2330	2000.766	-2240	2000.766	-2365
2000.767	-2410	2000.767	-2440	2000.767	-2297.5	2000.767	-2200	2000.767	-2322.5
2000.768	-2330	2000.768	-2287.5	2000.768	-2270	2000.768	-2190	2000.768	-2257.5
2000.769	-2262.5	2000.769	-2230	2000.769	-2222.5	2000.769	-2182.5	2000.769	-2132.5
2000.77	-2225	2000.77	-2087.5	2000.77	-2167.5	2000.77	-2085	2000.77	-2112.5
2000.771	-2210	2000.771	-1995	2000.771	-2160	2000.771	-2075	2000.771	-2045
2000.772	-2090	2000.772	-1990	2000.772	-2140	2000.772	-2082.5	2000.772	-1960
2000.773	-2122.5	2000.773	-1970	2000.773	-2202.5	2000.773	-2100	2000.773	-1995
2000.774	-2175	2000.774	-1950	2000.774	-2207.5	2000.774	-2152.5	2000.774	-2085
2000.775	-2500	2000.775	-2155	2000.775	-2495	2000.775	-2397.5	2000.775	-2367.5
2000.776	-3270	2000.776	-3080	2000.776	-3417.5	2000.776	-3337.5	2000.776	-3180
2000.777	-3750	2000.777	-3642.5	2000.777	-3995	2000.777	-3882.5	2000.777	-3717.5
2000.778	-2800	2000.778	-2720	2000.778	-3075	2000.778	-3045	2000.778	-2527.5
2000.779	570	2000.779	365	2000.779	-1057.5	2000.779	-1407.5	2000.779	305
2000.78	7585	2000.78	7182.5	2000.78	4210	2000.78	3237.5	2000.78	6475
2000.781	18005	2000.781	17145	2000.781	13112.5	2000.781	11602.5	2000.781	15850
2000.782	29252.5	2000.782	28257.5	2000.782	24842.5	2000.782	23167.5	2000.782	26965
2000.783	38352.5	2000.783	37587.5	2000.783	35570	2000.783	34165	2000.783	36407.5
2000.784	43405	2000.784	42850	2000.784	42585	2000.784	41995	2000.784	43552.5
2000.785	42700	2000.785	36957.5	2000.785	39225	2000.785	42927.5	2000.785	46772.5
2000.786	30412.5	2000.786	12517.5	2000.786	24427.5	2000.786	33730	2000.786	37695
2000.787	17495	2000.787	2392.5	2000.787	25975	2000.787	36442.5	2000.787	23897.5
2000.788	8135	2000.788	1775	2000.788	37565	2000.788	49522.5	2000.788	16937.5
2000.789	2752.5	2000.789	-492.5	2000.789	-10040	2000.789	-10390	2000.789	-4657.5
2000.79	-2857.5	2000.79	-3082.5	2000.79	-5070	2000.79	-4017.5	2000.79	-5787.5
2000.791	-2355	2000.791	-1320	2000.791	-102.5	2000.791	1060	2000.791	-2595
2000.792	1292.5	2000.792	2745	2000.792	4620	2000.792	5450	2000.792	1850
2000.793	4912.5	2000.793	6277.5	2000.793	8187.5	2000.793	8790	2000.793	5477.5
2000.794	6720	2000.794	8220	2000.794	10095	2000.794	10572.5	2000.794	7372.5
2000.795	7495	2000.795	8860	2000.795	10777.5	2000.795	11142.5	2000.795	8267.5
2000.796	8780	2000.796	9997.5	2000.796	12190	2000.796	12547.5	2000.796	9750
2000.797	10047.5	2000.797	11007.5	2000.797	13595	2000.797	14010	2000.797	11382.5
2000.798	11302.5	2000.798	11957.5	2000.798	14900	2000.798	15442.5	2000.798	12862.5
2000.799	12542.5	2000.799	12902.5	2000.799	16290	2000.799	16965	2000.799	14382.5
2000.8	13627.5	2000.8	13572.5	2000.8	17392.5	2000.8	18282.5	2000.8	15700
2000.801	14482.5	2000.801	14225	2000.801	18382.5	2000.801	19502.5	2000.801	16855
2000.802	15485	2000.802	14895	2000.802	19207.5	2000.802	20482.5	2000.802	17965
2000.803	16320	2000.803	15462.5	2000.803	19785	2000.803	21182.5	2000.803	18850
2000.804	16915	2000.804	15995	2000.804	20115	2000.804	21592.5	2000.804	19570
2000.805	17442.5	2000.805	16382.5	2000.805	20250	2000.805	21715	2000.805	19967.5
2000.806	17907.5	2000.806	16817.5	2000.806	20222.5	2000.806	21650	2000.806	20235
2000.807	18117.5	2000.807	17040	2000.807	20015	2000.807	21515	2000.807	20145
2000.808	18230	2000.808	17205	2000.808	19660	2000.808	21042.5	2000.808	20112.5
2000.809	18245	2000.809	17220	2000.809	19250	2000.809	20535	2000.809	19877.5
2000.81	18070	2000.81	17020	2000.81	18667.5	2000.81	19910	2000.81	19412.5
2000.811	17742.5	2000.811	16882.5	2000.811	18032.5	2000.811	19172.5	2000.811	18957.5
2000.812	17227.5	2000.812	16525	2000.812	17335	2000.812	18412.5	2000.812	18320
2000.813	16782.5	2000.813	16112.5	2000.813	16682.5	2000.813	17657.5	2000.813	17645
2000.814	16220	2000.814	15672.5	2000.814	15952.5	2000.814	16867.5	2000.814	16950
2000.815	15672.5	2000.815	15127.5	2000.815	15235	2000.815	16040	2000.815	16295
2000.816	15057.5	2000.816	14612.5	2000.816	14560	2000.816	15270	2000.816	15650
2000.817	14465	2000.817	13980	2000.817	13890	2000.817	14520	2000.817	14890
2000.818	13852.5	2000.818	13417.5	2000.818	13215	2000.818	13762.5	2000.818	14222.5
2000.819	13340	2000.819	12815	2000.819	12587.5	2000.819	13085	2000.819	13487.5
2000.82	12827.5	2000.82	12335	2000.82	11977.5	2000.82	12350	2000.82	12935
2000.821	12280	2000.821	11800	2000.821	11405	2000.821	11740	2000.821	12267.5
2000.822	11805	2000.822	11245	2000.822	10830	2000.822	11102.5	2000.822	11670
2000.823	11365	2000.823	10802.5	2000.823	10265	2000.823	10470	2000.823	11072.5
2000.824	10900	2000.824	10370	2000.824	9802.5	2000.824	9967.5	2000.824	10547.5
2000.825	10562.5	2000.825	10045	2000.825	9320	2000.825	9397.5	2000.825	10100
2000.826	10180	2000.826	9782.5	2000.826	8855	2000.826	8942.5	2000.826	9662.5
2000.827	9872.5	2000.827	9535	2000.827	8437.5	2000.827	8465	2000.827	9252.5
2000.828	9657.5	2000.828	9297.5	2000.828	8037.5	2000.828	8007.5	2000.828	8935
2000.829	9360	2000.829	9105	2000.829	7647.5	2000.829	7565	2000.829	8592.5
2000.83	8987.5	2000.83	8832.5	2000.83	7315	2000.83	7227.5	2000.83	8282.5
2000.831	8807.5	2000.831	8722.5	2000.831	6985	2000.831	6807.5	2000.831	8007.5
2000.832	8552.5	2000.832	8490	2000.832	6627.5	2000.832	6432.5	2000.832	7590
2000.833	8302.5	2000.833	8267.5	2000.833	6330	2000.833	6127.5	2000.833	7295
2000.834	8140	2000.834	8110	2000.834	6060	2000.834	5795	2000.834	7017.5
2000.835	7872.5	2000.835	7927.5	2000.835	5787.5	2000.835	5475	2000.835	6760
2000.836	7525	2000.836	7630	2000.836	5507.5	2000.836	5097.5	2000.836	6480
2000.837	7192.5	2000.837	7320	2000.837	5240	2000.837	4820	2000.837	6070
2000.838	6897.5	2000.838	6987.5	2000.838	4995	2000.838	4545	2000.838	5752.5
2000.839	6812.5	2000.839	6767.5	2000.839	4802.5	2000.839	4325	2000.839	5542.5
2000.84	6545	2000.84	6655	2000.84	4625	2000.84	4090	2000.84	5340
2000.841	6185	2000.841	6390	2000.841	4410	2000.841	3862.5	2000.841	4997.5
2000.842	6052.5	2000.842	6202.5	2000.842	4220	2000.842	3640	2000.842	4812.5
2000.843	5880	2000.843	6022.5	2000.843	4075	2000.843	3380	2000.843	4672.5
2000.844	5620	2000.844	5885	2000.844	3885	2000.844	3195	2000.844	4462.5
2000.845	5442.5	2000.845	5692.5	2000.845	3662.5	2000.845	2945	2000.845	4225
2000.846	5320	2000.846	5632.5	2000.846	3495	2000.846	2757.5	2000.846	4007.5
2000.847	5240	2000.847	5595	2000.847	3417.5	2000.847	2657.5	2000.847	3945
2000.848	5192.5	2000.848	5560	2000.848	3225	2000.848	2470	2000.848	3877.5
2000.849	5015	2000.849	5512.5	2000.849	3062.5	2000.849	2250	2000.849	3782.5
2000.85	4880	2000.85	5412.5	2000.85	2910	2000.85	2105	2000.85	3552.5
2000.851	4830	2000.851	5275	2000.851	2757.5	2000.851	1925	2000.851	3400
2000.852	4647.5	2000.852	5215	2000.852	2572.5	2000.852	1727.5	2000.852	3215
2000.853	4412.5	2000.853	5067.5	2000.853	2395	2000.853	1550	2000.853	3037.5
2000.854	4225	2000.854	4967.5	2000.854	2177.5	2000.854	1342.5	2000.854	2905
2000.855	3922.5	2000.855	4760	2000.855	1977.5	2000.855	1097.5	2000.855	2692.5
2000.856	3710	2000.856	4450	2000.856	1842.5	2000.856	970	2000.856	2415
2000.857	3455	2000.857	4232.5	2000.857	1642.5	2000.857	720	2000.857	2242.5
2000.858	3140	2000.858	3892.5	2000.858	1400	2000.858	492.5	2000.858	1967.5
2000.859	2905	2000.859	3557.5	2000.859	1190	2000.859	275	2000.859	1697.5
2000.86	2730	2000.86	3257.5	2000.86	1015	2000.86	95	2000.86	1495
2000.861	2380	2000.861	3027.5	2000.861	762.5	2000.861	-177.5	2000.861	1205
2000.862	2185	2000.862	2720	2000.862	612.5	2000.862	-340	2000.862	975
2000.863	1915	2000.863	2465	2000.863	435	2000.863	-512.5	2000.863	732.5
2000.864	1675	2000.864	2190	2000.864	182.5	2000.864	-790	2000.864	487.5
2000.865	1500	2000.865	1960	2000.865	-12.5	2000.865	-980	2000.865	290
2000.866	1247.5	2000.866	1907.5	2000.866	-212.5	2000.866	-1147.5	2000.866	120
2000.867	1117.5	2000.867	1742.5	2000.867	-375	2000.867	-1277.5	2000.867	-25
2000.868	1022.5	2000.868	1620	2000.868	-545	2000.868	-1487.5	2000.868	-100
2000.869	790	2000.869	1495	2000.869	-720	2000.869	-1605	2000.869	-305
2000.87	612.5	2000.87	1235	2000.87	-942.5	2000.87	-1840	2000.87	-532.5
2000.871	397.5	2000.871	1152.5	2000.871	-1142.5	2000.871	-2010	2000.871	-700
2000.872	240	2000.872	1015	2000.872	-1295	2000.872	-2150	2000.872	-747.5
2000.873	47.5	2000.873	835	2000.873	-1490	2000.873	-2360	2000.873	-1037.5
2000.874	-70	2000.874	637.5	2000.874	-1657.5	2000.874	-2482.5	2000.874	-1160
2000.875	-307.5	2000.875	407.5	2000.875	-1815	2000.875	-2645	2000.875	-1355
2000.876	-610	2000.876	132.5	2000.876	-1965	2000.876	-2785	2000.876	-1575
2000.877	-862.5	2000.877	-152.5	2000.877	-2170	2000.877	-2947.5	2000.877	-1787.5
2000.878	-1127.5	2000.878	-405	2000.878	-2302.5	2000.878	-3082.5	2000.878	-2032.5
2000.879	-1317.5	2000.879	-767.5	2000.879	-2437.5	2000.879	-3262.5	2000.879	-2092.5
2000.88	-1472.5	2000.88	-930	2000.88	-2505	2000.88	-3272.5	2000.88	-2347.5
2000.881	-1672.5	2000.881	-1225	2000.881	-2685	2000.881	-3477.5	2000.881	-2560
2000.882	-1852.5	2000.882	-1372.5	2000.882	-2790	2000.882	-3527.5	2000.882	-2680
2000.883	-2095	2000.883	-1642.5	2000.883	-2935	2000.883	-3677.5	2000.883	-2797.5
2000.884	-2257.5	2000.884	-1750	2000.884	-3030	2000.884	-3757.5	2000.884	-2970
2000.885	-2422.5	2000.885	-1897.5	2000.885	-3170	2000.885	-3855	2000.885	-3107.5
2000.886	-2445	2000.886	-2015	2000.886	-3230	2000.886	-3900	2000.886	-3175
2000.887	-2525	2000.887	-2072.5	2000.887	-3372.5	2000.887	-3972.5	2000.887	-3247.5
2000.888	-2522.5	2000.888	-2055	2000.888	-3425	2000.888	-4060	2000.888	-3345
2000.889	-2687.5	2000.889	-2067.5	2000.889	-3505	2000.889	-4137.5	2000.889	-3367.5
2000.89	-2737.5	2000.89	-2212.5	2000.89	-3567.5	2000.89	-4175	2000.89	-3455
2000.891	-2810	2000.891	-2152.5	2000.891	-3622.5	2000.891	-4210	2000.891	-3407.5
2000.892	-2880	2000.892	-2257.5	2000.892	-3672.5	2000.892	-4262.5	2000.892	-3465
2000.893	-3007.5	2000.893	-2310	2000.893	-3750	2000.893	-4252.5	2000.893	-3527.5
2000.894	-3007.5	2000.894	-2345	2000.894	-3830	2000.894	-4335	2000.894	-3577.5
2000.895	-3085	2000.895	-2442.5	2000.895	-3857.5	2000.895	-4387.5	2000.895	-3690
2000.896	-3230	2000.896	-2700	2000.896	-3925	2000.896	-4420	2000.896	-3810
2000.897	-3395	2000.897	-2750	2000.897	-3940	2000.897	-4430	2000.897	-3817.5
2000.898	-3400	2000.898	-2885	2000.898	-3992.5	2000.898	-4477.5	2000.898	-3972.5
2000.899	-3535	2000.899	-3095	2000.899	-4020	2000.899	-4572.5	2000.899	-4000
2000.9	-3562.5	2000.9	-3230	2000.9	-4077.5	2000.9	-4540	2000.9	-4170
2000.901	-3702.5	2000.901	-3447.5	2000.901	-4117.5	2000.901	-4602.5	2000.901	-4175
2000.902	-3715	2000.902	-3482.5	2000.902	-4132.5	2000.902	-4587.5	2000.902	-4222.5
2000.903	-3840	2000.903	-3590	2000.903	-4165	2000.903	-4607.5	2000.903	-4390
2000.904	-3865	2000.904	-3670	2000.904	-4227.5	2000.904	-4662.5	2000.904	-4452.5
2000.905	-3910	2000.905	-3682.5	2000.905	-4240	2000.905	-4610	2000.905	-4387.5
2000.906	-3810	2000.906	-3697.5	2000.906	-4242.5	2000.906	-4597.5	2000.906	-4392.5
2000.907	-3792.5	2000.907	-3580	2000.907	-4252.5	2000.907	-4632.5	2000.907	-4390
2000.908	-3852.5	2000.908	-3590	2000.908	-4265	2000.908	-4677.5	2000.908	-4362.5
2000.909	-3685	2000.909	-3432.5	2000.909	-4212.5	2000.909	-4587.5	2000.909	-4322.5
2000.91	-3685	2000.91	-3320	2000.91	-4175	2000.91	-4507.5	2000.91	-4197.5
2000.911	-3585	2000.911	-3332.5	2000.911	-4202.5	2000.911	-4535	2000.911	-4177.5
2000.912	-3625	2000.912	-3312.5	2000.912	-4207.5	2000.912	-4507.5	2000.912	-4182.5
2000.913	-3662.5	2000.913	-3275	2000.913	-4182.5	2000.913	-4467.5	2000.913	-4122.5
2000.914	-3620	2000.914	-3312.5	2000.914	-4187.5	2000.914	-4497.5	2000.914	-4142.5
2000.915	-3677.5	2000.915	-3360	2000.915	-4167.5	2000.915	-4457.5	2000.915	-4130
2000.916	-3735	2000.916	-3402.5	2000.916	-4190	2000.916	-4470	2000.916	-4185
2000.917	-3747.5	2000.917	-3557.5	2000.917	-4167.5	2000.917	-4475	2000.917	-4185
2000.918	-3902.5	2000.918	-3670	2000.918	-4192.5	2000.918	-4482.5	2000.918	-4227.5
2000.919	-3867.5	2000.919	-3722.5	2000.919	-4145	2000.919	-4440	2000.919	-4290
2000.92	-4020	2000.92	-3837.5	2000.92	-4175	2000.92	-4447.5	2000.92	-4302.5
2000.921	-4082.5	2000.921	-3975	2000.921	-4212.5	2000.921	-4480	2000.921	-4315
2000.922	-4147.5	2000.922	-4005	2000.922	-4185	2000.922	-4487.5	2000.922	-4410
2000.923	-4007.5	2000.923	-4092.5	2000.923	-4162.5	2000.923	-4450	2000.923	-4330
2000.924	-4010	2000.924	-4075	2000.924	-4147.5	2000.924	-4452.5	2000.924	-4372.5
2000.925	-4032.5	2000.925	-4062.5	2000.925	-4122.5	2000.925	-4412.5	2000.925	-4377.5
2000.926	-3952.5	2000.926	-3990	2000.926	-4160	2000.926	-4400	2000.926	-4415
2000.927	-3970	2000.927	-3877.5	2000.927	-4147.5	2000.927	-4382.5	2000.927	-4295
2000.928	-3927.5	2000.928	-3795	2000.928	-4112.5	2000.928	-4327.5	2000.928	-4300
2000.929	-3835	2000.929	-3697.5	2000.929	-4085	2000.929	-4335	2000.929	-4162.5
2000.93	-3765	2000.93	-3622.5	2000.93	-4112.5	2000.93	-4320	2000.93	-4125
2000.931	-3767.5	2000.931	-3530	2000.931	-4072.5	2000.931	-4257.5	2000.931	-4167.5
2000.932	-3695	2000.932	-3472.5	2000.932	-4050	2000.932	-4242.5	2000.932	-4107.5
2000.933	-3730	2000.933	-3475	2000.933	-3982.5	2000.933	-4232.5	2000.933	-3997.5
2000.934	-3620	2000.934	-3425	2000.934	-4012.5	2000.934	-4197.5	2000.934	-4000
2000.935	-3642.5	2000.935	-3420	2000.935	-3992.5	2000.935	-4212.5	2000.935	-4020
2000.936	-3800	2000.936	-3580	2000.936	-4022.5	2000.936	-4222.5	2000.936	-4050
2000.937	-3817.5	2000.937	-3665	2000.937	-4040	2000.937	-4202.5	2000.937	-4130
2000.938	-3862.5	2000.938	-3805	2000.938	-4047.5	2000.938	-4245	2000.938	-4152.5
2000.939	-3832.5	2000.939	-3807.5	2000.939	-4007.5	2000.939	-4185	2000.939	-4220
2000.94	-3960	2000.94	-3955	2000.94	-4027.5	2000.94	-4222.5	2000.94	-4275
2000.941	-4045	2000.941	-4020	2000.941	-3995	2000.941	-4220	2000.941	-4240
2000.942	-4010	2000.942	-4050	2000.942	-3995	2000.942	-4262.5	2000.942	-4200
2000.943	-3975	2000.943	-4012.5	2000.943	-3990	2000.943	-4182.5	2000.943	-4252.5
2000.944	-3940	2000.944	-4060	2000.944	-3975	2000.944	-4152.5	2000.944	-4270
2000.945	-3962.5	2000.945	-4035	2000.945	-3895	2000.945	-4167.5	2000.945	-4290
2000.946	-3885	2000.946	-3955	2000.946	-3932.5	2000.946	-4095	2000.946	-4265
2000.947	-3840	2000.947	-3822.5	2000.947	-3890	2000.947	-4085	2000.947	-4130
2000.948	-3780	2000.948	-3705	2000.948	-3847.5	2000.948	-4037.5	2000.948	-4037.5
2000.949	-3627.5	2000.949	-3577.5	2000.949	-3812.5	2000.949	-3965	2000.949	-4042.5
2000.95	-3560	2000.95	-3455	2000.95	-3750	2000.95	-3920	2000.95	-3957.5
2000.951	-3585	2000.951	-3467.5	2000.951	-3760	2000.951	-3895	2000.951	-3912.5
2000.952	-3497.5	2000.952	-3372.5	2000.952	-3735	2000.952	-3935	2000.952	-3830
2000.953	-3452.5	2000.953	-3292.5	2000.953	-3685	2000.953	-3907.5	2000.953	-3837.5
2000.954	-3542.5	2000.954	-3332.5	2000.954	-3730	2000.954	-3915	2000.954	-3832.5
2000.955	-3467.5	2000.955	-3280	2000.955	-3667.5	2000.955	-3827.5	2000.955	-3727.5
2000.956	-3457.5	2000.956	-3322.5	2000.956	-3670	2000.956	-3805	2000.956	-3770
2000.957	-3462.5	2000.957	-3377.5	2000.957	-3645	2000.957	-3800	2000.957	-3800
2000.958	-3585	2000.958	-3467.5	2000.958	-3635	2000.958	-3830	2000.958	-3802.5
2000.959	-3567.5	2000.959	-3577.5	2000.959	-3645	2000.959	-3837.5	2000.959	-3860
2000.96	-3620	2000.96	-3667.5	2000.96	-3605	2000.96	-3805	2000.96	-3915
2000.961	-3677.5	2000.961	-3722.5	2000.961	-3612.5	2000.961	-3805	2000.961	-3930
2000.962	-3667.5	2000.962	-3715	2000.962	-3575	2000.962	-3790	2000.962	-3865
2000.963	-3642.5	2000.963	-3742.5	2000.963	-3555	2000.963	-3727.5	2000.963	-3872.5
2000.964	-3550	2000.964	-3650	2000.964	-3542.5	2000.964	-3675	2000.964	-3832.5
2000.965	-3600	2000.965	-3685	2000.965	-3522.5	2000.965	-3680	2000.965	-3840
2000.966	-3502.5	2000.966	-3565	2000.966	-3445	2000.966	-3610	2000.966	-3717.5
2000.967	-3417.5	2000.967	-3447.5	2000.967	-3437.5	2000.967	-3572.5	2000.967	-3760
2000.968	-3372.5	2000.968	-3420	2000.968	-3407.5	2000.968	-3532.5	2000.968	-3692.5
2000.969	-3372.5	2000.969	-3385	2000.969	-3422.5	2000.969	-3565	2000.969	-3645
2000.97	-3345	2000.97	-3292.5	2000.97	-3425	2000.97	-3542.5	2000.97	-3632.5
2000.971	-3215	2000.971	-3215	2000.971	-3382.5	2000.971	-3485	2000.971	-3495
2000.972	-3242.5	2000.972	-3125	2000.972	-3367.5	2000.972	-3537.5	2000.972	-3530
2000.973	-3167.5	2000.973	-3045	2000.973	-3335	2000.973	-3465	2000.973	-3527.5
2000.974	-3212.5	2000.974	-3100	2000.974	-3340	2000.974	-3457.5	2000.974	-3520
2000.975	-3190	2000.975	-3105	2000.975	-3325	2000.975	-3485	2000.975	-3470
2000.976	-3235	2000.976	-3115	2000.976	-3305	2000.976	-3437.5	2000.976	-3585
2000.977	-3330	2000.977	-3185	2000.977	-3282.5	2000.977	-3370	2000.977	-3537.5
2000.978	-3382.5	2000.978	-3322.5	2000.978	-3297.5	2000.978	-3387.5	2000.978	-3612.5
2000.979	-3357.5	2000.979	-3320	2000.979	-3255	2000.979	-3372.5	2000.979	-3592.5
2000.98	-3330	2000.98	-3355	2000.98	-3225	2000.98	-3357.5	2000.98	-3580
2000.981	-3440	2000.981	-3400	2000.981	-3200	2000.981	-3347.5	2000.981	-3632.5
2000.982	-3397.5	2000.982	-3455	2000.982	-3192.5	2000.982	-3322.5	2000.982	-3680
2000.983	-3437.5	2000.983	-3475	2000.983	-3192.5	2000.983	-3340	2000.983	-3660
2000.984	-3352.5	2000.984	-3512.5	2000.984	-3217.5	2000.984	-3297.5	2000.984	-3652.5
2000.985	-3385	2000.985	-3470	2000.985	-3152.5	2000.985	-3292.5	2000.985	-3645
2000.986	-3347.5	2000.986	-3405	2000.986	-3185	2000.986	-3290	2000.986	-3670
2000.987	-3262.5	2000.987	-3312.5	2000.987	-3130	2000.987	-3242.5	2000.987	-3577.5
2000.988	-3165	2000.988	-3267.5	2000.988	-3127.5	2000.988	-3180	2000.988	-3485
2000.989	-3122.5	2000.989	-3137.5	2000.989	-3117.5	2000.989	-3197.5	2000.989	-3435
2000.99	-3182.5	2000.99	-3117.5	2000.99	-3105	2000.99	-3195	2000.99	-3487.5
2000.991	-3092.5	2000.991	-3010	2000.991	-3072.5	2000.991	-3125	2000.991	-3352.5
2000.992	-3052.5	2000.992	-2892.5	2000.992	-3062.5	2000.992	-3112.5	2000.992	-3332.5
2000.993	-3035	2000.993	-2940	2000.993	-3040	2000.993	-3050	2000.993	-3335
2000.994	-2985	2000.994	-2832.5	2000.994	-3060	2000.994	-3080	2000.994	-3297.5
2000.995	-3055	2000.995	-2837.5	2000.995	-3005	2000.995	-3020	2000.995	-3320
2000.996	-3140	2000.996	-2887.5	2000.996	-3025	2000.996	-3040	2000.996	-3355
2000.997	-3170	2000.997	-2947.5	2000.997	-3022.5	2000.997	-2965	2000.997	-3320
2000.998	-3205	2000.998	-2977.5	2000.998	-3007.5	2000.998	-2972.5	2000.998	-3345
2000.999	-3240	2000.999	-3092.5	2000.999	-3010	2000.999	-2992.5	2000.999	-3472.5
2001	-3272.5	2001	-3180	2001	-3027.5	2001	-3000	2001	-3485
2001.001	-3342.5	2001.001	-3250	2001.001	-3067.5	2001.001	-3037.5	2001.001	-3540
2001.002	-3450	2001.002	-3317.5	2001.002	-3080	2001.002	-3000	2001.002	-3597.5
2001.003	-3405	2001.003	-3345	2001.003	-3015	2001.003	-3010	2001.003	-3572.5
2001.004	-3360	2001.004	-3297.5	2001.004	-3030	2001.004	-2972.5	2001.004	-3512.5
2001.005	-3310	2001.005	-3297.5	2001.005	-2992.5	2001.005	-2980	2001.005	-3502.5
2001.006	-3222.5	2001.006	-3237.5	2001.006	-2977.5	2001.006	-2912.5	2001.006	-3415
2001.007	-3132.5	2001.007	-3135	2001.007	-2955	2001.007	-2877.5	2001.007	-3357.5
2001.008	-3032.5	2001.008	-2980	2001.008	-2935	2001.008	-2825	2001.008	-3235
2001.009	-3060	2001.009	-3000	2001.009	-2900	2001.009	-2832.5	2001.009	-3312.5
2001.01	-3052.5	2001.01	-2885	2001.01	-2900	2001.01	-2835	2001.01	-3267.5
2001.011	-2877.5	2001.011	-2777.5	2001.011	-2870	2001.011	-2810	2001.011	-3152.5
2001.012	-2942.5	2001.012	-2745	2001.012	-2855	2001.012	-2752.5	2001.012	-3077.5
2001.013	-2897.5	2001.013	-2717.5	2001.013	-2810	2001.013	-2730	2001.013	-3072.5
2001.014	-2852.5	2001.014	-2642.5	2001.014	-2817.5	2001.014	-2692.5	2001.014	-3030
2001.015	-2877.5	2001.015	-2657.5	2001.015	-2807.5	2001.015	-2707.5	2001.015	-3080
2001.016	-2860	2001.016	-2660	2001.016	-2777.5	2001.016	-2707.5	2001.016	-2995
2001.017	-2960	2001.017	-2725	2001.017	-2740	2001.017	-2692.5	2001.017	-3050
2001.018	-2962.5	2001.018	-2825	2001.018	-2792.5	2001.018	-2757.5	2001.018	-3170
2001.019	-3000	2001.019	-2970	2001.019	-2835	2001.019	-2780	2001.019	-3167.5
2001.02	-3057.5	2001.02	-2962.5	2001.02	-2805	2001.02	-2735	2001.02	-3130
2001.021	-3127.5	2001.021	-3035	2001.021	-2750	2001.021	-2720	2001.021	-3235
2001.022	-3127.5	2001.022	-3052.5	2001.022	-2812.5	2001.022	-2732.5	2001.022	-3145
2001.023	-3075	2001.023	-3082.5	2001.023	-2770	2001.023	-2722.5	2001.023	-3205
2001.024	-3050	2001.024	-3087.5	2001.024	-2777.5	2001.024	-2722.5	2001.024	-3220
2001.025	-3145	2001.025	-3095	2001.025	-2760	2001.025	-2732.5	2001.025	-3220
2001.026	-3027.5	2001.026	-3067.5	2001.026	-2755	2001.026	-2655	2001.026	-3192.5
2001.027	-3010	2001.027	-2985	2001.027	-2712.5	2001.027	-2632.5	2001.027	-3132.5
2001.028	-2950	2001.028	-2850	2001.028	-2715	2001.028	-2605	2001.028	-3102.5
2001.029	-2885	2001.029	-2782.5	2001.029	-2705	2001.029	-2560	2001.029	-2987.5
2001.03	-2887.5	2001.03	-2675	2001.03	-2690	2001.03	-2630	2001.03	-2970
2001.031	-2825	2001.031	-2562.5	2001.031	-2642.5	2001.031	-2522.5	2001.031	-2912.5
2001.032	-2705	2001.032	-2510	2001.032	-2607.5	2001.032	-2567.5	2001.032	-2897.5
2001.033	-2687.5	2001.033	-2440	2001.033	-2577.5	2001.033	-2455	2001.033	-2722.5
2001.034	-2615	2001.034	-2405	2001.034	-2545	2001.034	-2422.5	2001.034	-2727.5
2001.035	-2640	2001.035	-2417.5	2001.035	-2495	2001.035	-2382.5	2001.035	-2797.5
2001.036	-2710	2001.036	-2507.5	2001.036	-2460	2001.036	-2355	2001.036	-2812.5
2001.037	-2815	2001.037	-2570	2001.037	-2482.5	2001.037	-2370	2001.037	-2810
2001.038	-2852.5	2001.038	-2720	2001.038	-2505	2001.038	-2417.5	2001.038	-2907.5
2001.039	-2950	2001.039	-2870	2001.039	-2535	2001.039	-2447.5	2001.039	-3002.5
2001.04	-2962.5	2001.04	-2910	2001.04	-2560	2001.04	-2442.5	2001.04	-3035
2001.041	-3035	2001.041	-3015	2001.041	-2550	2001.041	-2432.5	2001.041	-3030
2001.042	-3065	2001.042	-3092.5	2001.042	-2515	2001.042	-2445	2001.042	-3080
2001.043	-3102.5	2001.043	-3090	2001.043	-2545	2001.043	-2422.5	2001.043	-3097.5
2001.044	-3082.5	2001.044	-3047.5	2001.044	-2520	2001.044	-2402.5	2001.044	-3075
2001.045	-2977.5	2001.045	-3015	2001.045	-2532.5	2001.045	-2395	2001.045	-3022.5
2001.046	-2990	2001.046	-2935	2001.046	-2467.5	2001.046	-2342.5	2001.046	-3010
2001.047	-2927.5	2001.047	-2877.5	2001.047	-2447.5	2001.047	-2300	2001.047	-2972.5
2001.048	-2855	2001.048	-2817.5	2001.048	-2442.5	2001.048	-2265	2001.048	-2892.5
2001.049	-2730	2001.049	-2637.5	2001.049	-2367.5	2001.049	-2275	2001.049	-2817.5
2001.05	-2662.5	2001.05	-2595	2001.05	-2355	2001.05	-2252.5	2001.05	-2782.5
2001.051	-2607.5	2001.051	-2492.5	2001.051	-2350	2001.051	-2202.5	2001.051	-2687.5
2001.052	-2602.5	2001.052	-2442.5	2001.052	-2355	2001.052	-2230	2001.052	-2692.5
2001.053	-2527.5	2001.053	-2375	2001.053	-2305	2001.053	-2127.5	2001.053	-2622.5
2001.054	-2542.5	2001.054	-2357.5	2001.054	-2320	2001.054	-2152.5	2001.054	-2670
2001.055	-2630	2001.055	-2332.5	2001.055	-2305	2001.055	-2150	2001.055	-2607.5
2001.056	-2665	2001.056	-2437.5	2001.056	-2305	2001.056	-2110	2001.056	-2585
2001.057	-2617.5	2001.057	-2527.5	2001.057	-2315	2001.057	-2127.5	2001.057	-2632.5
2001.058	-2797.5	2001.058	-2672.5	2001.058	-2352.5	2001.058	-2195	2001.058	-2712.5
2001.059	-2872.5	2001.059	-2750	2001.059	-2340	2001.059	-2180	2001.059	-2762.5
2001.06	-2882.5	2001.06	-2847.5	2001.06	-2362.5	2001.06	-2200	2001.06	-2787.5
2001.061	-2932.5	2001.061	-2897.5	2001.061	-2312.5	2001.061	-2167.5	2001.061	-2802.5
2001.062	-2927.5	2001.062	-2957.5	2001.062	-2330	2001.062	-2192.5	2001.062	-2775
2001.063	-2900	2001.063	-2975	2001.063	-2290	2001.063	-2150	2001.063	-2787.5
2001.064	-2832.5	2001.064	-2957.5	2001.064	-2272.5	2001.064	-2140	2001.064	-2790
2001.065	-2837.5	2001.065	-2902.5	2001.065	-2285	2001.065	-2127.5	2001.065	-2745
2001.066	-2742.5	2001.066	-2785	2001.066	-2260	2001.066	-2090	2001.066	-2690
2001.067	-2720	2001.067	-2742.5	2001.067	-2235	2001.067	-2042.5	2001.067	-2582.5
2001.068	-2725	2001.068	-2652.5	2001.068	-2180	2001.068	-2007.5	2001.068	-2667.5
2001.069	-2647.5	2001.069	-2557.5	2001.069	-2157.5	2001.069	-1972.5	2001.069	-2507.5
2001.07	-2522.5	2001.07	-2460	2001.07	-2172.5	2001.07	-1977.5	2001.07	-2567.5
2001.071	-2512.5	2001.071	-2412.5	2001.071	-2132.5	2001.071	-1947.5	2001.071	-2357.5
2001.072	-2515	2001.072	-2372.5	2001.072	-2162.5	2001.072	-1952.5	2001.072	-2390
2001.073	-2530	2001.073	-2350	2001.073	-2157.5	2001.073	-1912.5	2001.073	-2415
2001.074	-2445	2001.074	-2320	2001.074	-2165	2001.074	-1980	2001.074	-2357.5
2001.075	-2430	2001.075	-2290	2001.075	-2127.5	2001.075	-1890	2001.075	-2320
2001.076	-2455	2001.076	-2357.5	2001.076	-2120	2001.076	-1892.5	2001.076	-2355
2001.077	-2535	2001.077	-2412.5	2001.077	-2107.5	2001.077	-1917.5	2001.077	-2477.5
2001.078	-2527.5	2001.078	-2515	2001.078	-2120	2001.078	-1910	2001.078	-2480
2001.079	-2612.5	2001.079	-2640	2001.079	-2115	2001.079	-1962.5	2001.079	-2525
2001.08	-2627.5	2001.08	-2647.5	2001.08	-2125	2001.08	-1960	2001.08	-2610
2001.081	-2732.5	2001.081	-2767.5	2001.081	-2132.5	2001.081	-1985	2001.081	-2590
2001.082	-2717.5	2001.082	-2775	2001.082	-2107.5	2001.082	-1952.5	2001.082	-2510
2001.083	-2775	2001.083	-2755	2001.083	-2135	2001.083	-1940	2001.083	-2565
2001.084	-2702.5	2001.084	-2782.5	2001.084	-2090	2001.084	-1907.5	2001.084	-2570
2001.085	-2677.5	2001.085	-2762.5	2001.085	-2082.5	2001.085	-1895	2001.085	-2565
2001.086	-2565	2001.086	-2667.5	2001.086	-2095	2001.086	-1915	2001.086	-2460
2001.087	-2612.5	2001.087	-2577.5	2001.087	-2027.5	2001.087	-1862.5	2001.087	-2437.5
2001.088	-2440	2001.088	-2430	2001.088	-1997.5	2001.088	-1812.5	2001.088	-2360
2001.089	-2340	2001.089	-2282.5	2001.089	-1945	2001.089	-1705	2001.089	-2275
2001.09	-2337.5	2001.09	-2240	2001.09	-1942.5	2001.09	-1720	2001.09	-2215
2001.091	-2270	2001.091	-2125	2001.091	-1930	2001.091	-1742.5	2001.091	-2157.5
2001.092	-2307.5	2001.092	-2085	2001.092	-1985	2001.092	-1777.5	2001.092	-2145
2001.093	-2312.5	2001.093	-2057.5	2001.093	-1952.5	2001.093	-1775	2001.093	-2137.5
2001.094	-2200	2001.094	-2067.5	2001.094	-1937.5	2001.094	-1745	2001.094	-2135
2001.095	-2352.5	2001.095	-2072.5	2001.095	-1947.5	2001.095	-1755	2001.095	-2127.5
2001.096	-2410	2001.096	-2165	2001.096	-1970	2001.096	-1775	2001.096	-2170
2001.097	-2385	2001.097	-2195	2001.097	-1965	2001.097	-1800	2001.097	-2210
2001.098	-2457.5	2001.098	-2275	2001.098	-1957.5	2001.098	-1757.5	2001.098	-2300
2001.099	-2555	2001.099	-2335	2001.099	-1942.5	2001.099	-1740	2001.099	-2270
2001.1	-2567.5	2001.1	-2440	2001.1	-1920	2001.1	-1742.5	2001.1	-2250
2001.101	-2532.5	2001.101	-2460	2001.101	-1930	2001.101	-1770	2001.101	-2352.5
2001.102	-2505	2001.102	-2522.5	2001.102	-1917.5	2001.102	-1782.5	2001.102	-2317.5
2001.103	-2500	2001.103	-2632.5	2001.103	-1932.5	2001.103	-1755	2001.103	-2437.5
2001.104	-2560	2001.104	-2577.5	2001.104	-1920	2001.104	-1765	2001.104	-2380
2001.105	-2552.5	2001.105	-2522.5	2001.105	-1857.5	2001.105	-1697.5	2001.105	-2310
2001.106	-2402.5	2001.106	-2335	2001.106	-1797.5	2001.106	-1617.5	2001.106	-2247.5
2001.107	-2307.5	2001.107	-2370	2001.107	-1842.5	2001.107	-1627.5	2001.107	-2212.5
2001.108	-2285	2001.108	-2202.5	2001.108	-1797.5	2001.108	-1597.5	2001.108	-2147.5
2001.109	-2192.5	2001.109	-2100	2001.109	-1792.5	2001.109	-1597.5	2001.109	-2005
2001.11	-2080	2001.11	-1957.5	2001.11	-1730	2001.11	-1505	2001.11	-1977.5
2001.111	-1995	2001.111	-1910	2001.111	-1717.5	2001.111	-1505	2001.111	-1950
2001.112	-1975	2001.112	-1807.5	2001.112	-1665	2001.112	-1472.5	2001.112	-1852.5
2001.113	-1997.5	2001.113	-1775	2001.113	-1707.5	2001.113	-1495	2001.113	-1892.5
2001.114	-2040	2001.114	-1790	2001.114	-1712.5	2001.114	-1467.5	2001.114	-1882.5
2001.115	-2077.5	2001.115	-1825	2001.115	-1695	2001.115	-1500	2001.115	-1845
2001.116	-2175	2001.116	-1922.5	2001.116	-1712.5	2001.116	-1525	2001.116	-1882.5
2001.117	-2280	2001.117	-2030	2001.117	-1747.5	2001.117	-1557.5	2001.117	-1972.5
2001.118	-2220	2001.118	-2057.5	2001.118	-1777.5	2001.118	-1602.5	2001.118	-2015
2001.119	-2262.5	2001.119	-2092.5	2001.119	-1720	2001.119	-1570	2001.119	-2040
2001.12	-2312.5	2001.12	-2202.5	2001.12	-1745	2001.12	-1595	2001.12	-2027.5
2001.121	-2362.5	2001.121	-2280	2001.121	-1735	2001.121	-1550	2001.121	-2042.5
2001.122	-2302.5	2001.122	-2360	2001.122	-1765	2001.122	-1600	2001.122	-2110
2001.123	-2320	2001.123	-2320	2001.123	-1722.5	2001.123	-1575	2001.123	-2142.5
2001.124	-2392.5	2001.124	-2267.5	2001.124	-1730	2001.124	-1537.5	2001.124	-2165
2001.125	-2272.5	2001.125	-2265	2001.125	-1722.5	2001.125	-1585	2001.125	-2092.5
2001.126	-2227.5	2001.126	-2207.5	2001.126	-1692.5	2001.126	-1585	2001.126	-2177.5
2001.127	-2145	2001.127	-2160	2001.127	-1702.5	2001.127	-1510	2001.127	-2025
2001.128	-2047.5	2001.128	-2022.5	2001.128	-1675	2001.128	-1490	2001.128	-1935
2001.129	-2090	2001.129	-1932.5	2001.129	-1687.5	2001.129	-1472.5	2001.129	-1945
2001.13	-2000	2001.13	-1872.5	2001.13	-1637.5	2001.13	-1485	2001.13	-1847.5
2001.131	-1977.5	2001.131	-1687.5	2001.131	-1600	2001.131	-1447.5	2001.131	-1807.5
2001.132	-1910	2001.132	-1682.5	2001.132	-1657.5	2001.132	-1482.5	2001.132	-1762.5
2001.133	-1907.5	2001.133	-1640	2001.133	-1587.5	2001.133	-1417.5	2001.133	-1735
2001.134	-1915	2001.134	-1595	2001.134	-1597.5	2001.134	-1442.5	2001.134	-1735
2001.135	-1910	2001.135	-1662.5	2001.135	-1630	2001.135	-1492.5	2001.135	-1790
2001.136	-1967.5	2001.136	-1760	2001.136	-1655	2001.136	-1495	2001.136	-1775
2001.137	-2020	2001.137	-1802.5	2001.137	-1617.5	2001.137	-1490	2001.137	-1707.5
2001.138	-2087.5	2001.138	-1842.5	2001.138	-1635	2001.138	-1480	2001.138	-1850
2001.139	-2120	2001.139	-1995	2001.139	-1657.5	2001.139	-1545	2001.139	-1867.5
2001.14	-2050	2001.14	-2007.5	2001.14	-1640	2001.14	-1520	2001.14	-1885
2001.141	-2127.5	2001.141	-2157.5	2001.141	-1645	2001.141	-1555	2001.141	-1885
2001.142	-2107.5	2001.142	-2075	2001.142	-1640	2001.142	-1510	2001.142	-1890
2001.143	-2027.5	2001.143	-2115	2001.143	-1585	2001.143	-1465	2001.143	-1930
2001.144	-2090	2001.144	-2080	2001.144	-1597.5	2001.144	-1490	2001.144	-1915
2001.145	-2007.5	2001.145	-2022.5	2001.145	-1570	2001.145	-1407.5	2001.145	-1885
2001.146	-2027.5	2001.146	-2117.5	2001.146	-1667.5	2001.146	-1562.5	2001.146	-1947.5
2001.147	-2262.5	2001.147	-2255	2001.147	-1867.5	2001.147	-1765	2001.147	-2147.5
2001.148	-2367.5	2001.148	-2227.5	2001.148	-1990	2001.148	-1827.5	2001.148	-2225
2001.149	-2300	2001.149	-2292.5	2001.149	-2045	2001.149	-1915	2001.149	-2247.5
2001.15	-2642.5	2001.15	-2512.5	2001.15	-2415	2001.15	-2285	2001.15	-2485
2001.151	-2872.5	2001.151	-2745	2001.151	-2720	2001.151	-2565	2001.151	-2797.5
2001.152	-3060	2001.152	-2837.5	2001.152	-2805	2001.152	-2660	2001.152	-2872.5
2001.153	-2740	2001.153	-2600	2001.153	-2545	2001.153	-2390	2001.153	-2627.5
2001.154	-2240	2001.154	-2037.5	2001.154	-2007.5	2001.154	-1867.5	2001.154	-2095
2001.155	-1760	2001.155	-1637.5	2001.155	-1525	2001.155	-1392.5	2001.155	-1580
2001.156	-1507.5	2001.156	-1355	2001.156	-1170	2001.156	-1032.5	2001.156	-1302.5
2001.157	-1185	2001.157	-1052.5	2001.157	-765	2001.157	-625	2001.157	-975
2001.158	-830	2001.158	-680	2001.158	-322.5	2001.158	-175	2001.158	-610
2001.159	-902.5	2001.159	-802.5	2001.159	-397.5	2001.159	-257.5	2001.159	-685
2001.16	-1245	2001.16	-1120	2001.16	-717.5	2001.16	-602.5	2001.16	-955
2001.161	-1220	2001.161	-1162.5	2001.161	-742.5	2001.161	-625	2001.161	-987.5
2001.162	-1695	2001.162	-1600	2001.162	-1190	2001.162	-1130	2001.162	-1442.5
2001.163	-2667.5	2001.163	-2702.5	2001.163	-2375	2001.163	-2272.5	2001.163	-2535
2001.164	-3250	2001.164	-3215	2001.164	-2820	2001.164	-2735	2001.164	-2960
2001.165	-1955	2001.165	-2022.5	2001.165	-1547.5	2001.165	-1472.5	2001.165	-1832.5
2001.166	-1932.5	2001.166	-1975	2001.166	-1602.5	2001.166	-1500	2001.166	-1712.5
2001.167	-2005	2001.167	-2035	2001.167	-1640	2001.167	-1505	2001.167	-1765
2001.168	-2015	2001.168	-1917.5	2001.168	-1685	2001.168	-1582.5	2001.168	-1835
2001.169	-1900	2001.169	-1762.5	2001.169	-1587.5	2001.169	-1440	2001.169	-1692.5
2001.17	-2067.5	2001.17	-2005	2001.17	-1935	2001.17	-1780	2001.17	-1877.5
2001.171	-2180	2001.171	-2012.5	2001.171	-2047.5	2001.171	-1952.5	2001.171	-2045
2001.172	-2340	2001.172	-1995	2001.172	-2070	2001.172	-1990	2001.172	-2085
2001.173	-2480	2001.173	-2265	2001.173	-2447.5	2001.173	-2335	2001.173	-2365
2001.174	-3170	2001.174	-2957.5	2001.174	-3190	2001.174	-3065	2001.174	-2962.5
2001.175	-3530	2001.175	-3210	2001.175	-3455	2001.175	-3325	2001.175	-3285
2001.176	-3890	2001.176	-3520	2001.176	-3750	2001.176	-3625	2001.176	-3652.5
2001.177	-3995	2001.177	-3785	2001.177	-3885	2001.177	-3832.5	2001.177	-3777.5
2001.178	-4000	2001.178	-3865	2001.178	-3917.5	2001.178	-3817.5	2001.178	-3835
2001.179	-4045	2001.179	-3890	2001.179	-3862.5	2001.179	-3805	2001.179	-3842.5
2001.18	-4050	2001.18	-3940	2001.18	-3845	2001.18	-3765	2001.18	-3830
2001.181	-3960	2001.181	-3895	2001.181	-3742.5	2001.181	-3710	2001.181	-3852.5
2001.182	-3945	2001.182	-3870	2001.182	-3645	2001.182	-3592.5	2001.182	-3795
2001.183	-3850	2001.183	-3850	2001.183	-3572.5	2001.183	-3537.5	2001.183	-3750
2001.184	-3795	2001.184	-3822.5	2001.184	-3510	2001.184	-3447.5	2001.184	-3650
2001.185	-3637.5	2001.185	-3682.5	2001.185	-3427.5	2001.185	-3315	2001.185	-3557.5
2001.186	-3572.5	2001.186	-3540	2001.186	-3282.5	2001.186	-3262.5	2001.186	-3387.5
2001.187	-3437.5	2001.187	-3337.5	2001.187	-3155	2001.187	-3060	2001.187	-3247.5
2001.188	-3337.5	2001.188	-3112.5	2001.188	-3092.5	2001.188	-3060	2001.188	-3187.5
2001.189	-3120	2001.189	-2950	2001.189	-2980	2001.189	-2902.5	2001.189	-3042.5
2001.19	-2977.5	2001.19	-2837.5	2001.19	-2905	2001.19	-2820	2001.19	-2877.5
2001.191	-2887.5	2001.191	-2697.5	2001.191	-2832.5	2001.191	-2735	2001.191	-2765
2001.192	-2850	2001.192	-2625	2001.192	-2800	2001.192	-2732.5	2001.192	-2702.5
2001.193	-2765	2001.193	-2515	2001.193	-2750	2001.193	-2675	2001.193	-2700
2001.194	-2730	2001.194	-2382.5	2001.194	-2685	2001.194	-2580	2001.194	-2575
2001.195	-2597.5	2001.195	-2410	2001.195	-2562.5	2001.195	-2505	2001.195	-2485
2001.196	-2687.5	2001.196	-2315	2001.196	-2470	2001.196	-2415	2001.196	-2445
2001.197	-2585	2001.197	-2360	2001.197	-2425	2001.197	-2372.5	2001.197	-2385
2001.198	-2600	2001.198	-2370	2001.198	-2392.5	2001.198	-2305	2001.198	-2345
2001.199	-2605	2001.199	-2370	2001.199	-2385	2001.199	-2290	2001.199	-2390
2001.2	-2582.5	2001.2	-2422.5	2001.2	-2340	2001.2	-2285	2001.2	-2420
2001.201	-2547.5	2001.201	-2545	2001.201	-2345	2001.201	-2305	2001.201	-2380
2001.202	-2580	2001.202	-2497.5	2001.202	-2322.5	2001.202	-2262.5	2001.202	-2355
2001.203	-2577.5	2001.203	-2462.5	2001.203	-2255	2001.203	-2190	2001.203	-2307.5
2001.204	-2495	2001.204	-2445	2001.204	-2200	2001.204	-2157.5	2001.204	-2372.5
2001.205	-2385	2001.205	-2432.5	2001.205	-2177.5	2001.205	-2137.5	2001.205	-2262.5
2001.206	-2270	2001.206	-2317.5	2001.206	-2150	2001.206	-2100	2001.206	-2177.5
2001.207	-2285	2001.207	-2182.5	2001.207	-2132.5	2001.207	-2045	2001.207	-2102.5
2001.208	-2235	2001.208	-2135	2001.208	-2150	2001.208	-2080	2001.208	-2172.5
2001.209	-2220	2001.209	-2205	2001.209	-2212.5	2001.209	-2135	2001.209	-2205
2001.21	-2772.5	2001.21	-2537.5	2001.21	-2765	2001.21	-2675	2001.21	-2605
2001.211	-3330	2001.211	-3170	2001.211	-3577.5	2001.211	-3472.5	2001.211	-3275
2001.212	-3392.5	2001.212	-3307.5	2001.212	-3675	2001.212	-3612.5	2001.212	-3240
2001.213	-1155	2001.213	-1202.5	2001.213	-2255	2001.213	-2347.5	2001.213	-1152.5
2001.214	3832.5	2001.214	3787.5	2001.214	1255	2001.214	627.5	2001.214	3245
2001.215	12480	2001.215	12105	2001.215	8057.5	2001.215	6740	2001.215	10755
2001.216	23860	2001.216	23005	2001.216	18622.5	2001.216	16890	2001.216	21362.5
2001.217	34432.5	2001.217	33860	2001.217	30302.5	2001.217	28597.5	2001.217	32052.5
2001.218	42107.5	2001.218	41712.5	2001.218	39730	2001.218	38530	2001.218	40700
2001.219	44285	2001.219	43122.5	2001.219	43760	2001.219	44450	2001.219	46322.5
2001.22	37485	2001.22	24447.5	2001.22	29285	2001.22	36590	2001.22	44302.5
2001.221	22115	2001.221	4265	2001.221	22207.5	2001.221	32190	2001.221	30490
2001.222	11960	2001.222	387.5	2001.222	31312.5	2001.222	42825	2001.222	18835
2001.223	4237.5	2001.223	-1275	2001.223	7385	2001.223	12537.5	2001.223	2147.5
2001.224	-615	2001.224	-1880	2001.224	-7442.5	2001.224	-7157.5	2001.224	-5960
2001.225	-3697.5	2001.225	-3277.5	2001.225	-2622.5	2001.225	-1470	2001.225	-4852.5
2001.226	-1512.5	2001.226	-277.5	2001.226	1942.5	2001.226	2840	2001.226	-1222.5
2001.227	3010	2001.227	4297.5	2001.227	6650	2001.227	7345	2001.227	3510
2001.228	5842.5	2001.228	7152.5	2001.228	9455	2001.228	9972.5	2001.228	6442.5
2001.229	7085	2001.229	8385	2001.229	10627.5	2001.229	11027.5	2001.229	7760
2001.23	8022.5	2001.23	9330	2001.23	11580	2001.23	11887.5	2001.23	8940
2001.231	9350	2001.231	10552.5	2001.231	13005	2001.231	13362.5	2001.231	10590
2001.232	10632.5	2001.232	11590	2001.232	14270	2001.232	14695	2001.232	12062.5
2001.233	12045	2001.233	12745	2001.233	15707.5	2001.233	16267.5	2001.233	13782.5
2001.234	13230	2001.234	13597.5	2001.234	16952.5	2001.234	17740	2001.234	15215
2001.235	14147.5	2001.235	14260	2001.235	17955	2001.235	18987.5	2001.235	16495
2001.236	15082.5	2001.236	14932.5	2001.236	18885	2001.236	20110	2001.236	17662.5
2001.237	16040	2001.237	15502.5	2001.237	19595	2001.237	20905	2001.237	18610
2001.238	16640	2001.238	15942.5	2001.238	20000	2001.238	21462.5	2001.238	19282.5
2001.239	17220	2001.239	16315	2001.239	20185	2001.239	21715	2001.239	19840
2001.24	17485	2001.24	16515	2001.24	20200	2001.24	21722.5	2001.24	20065
2001.241	17702.5	2001.241	16755	2001.241	20045	2001.241	21552.5	2001.241	20142.5
2001.242	17797.5	2001.242	16880	2001.242	19790	2001.242	21167.5	2001.242	20047.5
2001.243	17757.5	2001.243	16787.5	2001.243	19387.5	2001.243	20695	2001.243	19807.5
2001.244	17630	2001.244	16757.5	2001.244	18882.5	2001.244	20140	2001.244	19437.5
2001.245	17430	2001.245	16535	2001.245	18355	2001.245	19495	2001.245	18952.5
2001.246	17135	2001.246	16280	2001.246	17725	2001.246	18825	2001.246	18477.5
2001.247	16775	2001.247	15987.5	2001.247	17065	2001.247	18110	2001.247	17895
2001.248	16340	2001.248	15732.5	2001.248	16400	2001.248	17340	2001.248	17365
2001.249	15955	2001.249	15452.5	2001.249	15772.5	2001.249	16617.5	2001.249	16735
2001.25	15512.5	2001.25	15102.5	2001.25	15125	2001.25	15862.5	2001.25	16130
2001.251	15000	2001.251	14705	2001.251	14522.5	2001.251	15192.5	2001.251	15580
2001.252	14482.5	2001.252	14312.5	2001.252	13870	2001.252	14492.5	2001.252	14985
2001.253	14057.5	2001.253	13882.5	2001.253	13282.5	2001.253	13787.5	2001.253	14417.5
2001.254	13487.5	2001.254	13362.5	2001.254	12627.5	2001.254	13110	2001.254	13792.5
2001.255	12977.5	2001.255	12852.5	2001.255	12077.5	2001.255	12465	2001.255	13180
2001.256	12485	2001.256	12302.5	2001.256	11460	2001.256	11797.5	2001.256	12557.5
2001.257	11995	2001.257	11825	2001.257	10875	2001.257	11145	2001.257	11927.5
2001.258	11545	2001.258	11295	2001.258	10372.5	2001.258	10555	2001.258	11400
2001.259	10915	2001.259	10740	2001.259	9865	2001.259	10002.5	2001.259	10885
2001.26	10475	2001.26	10267.5	2001.26	9315	2001.26	9452.5	2001.26	10187.5
2001.261	10020	2001.261	9865	2001.261	8875	2001.261	8930	2001.261	9695
2001.262	9695	2001.262	9442.5	2001.262	8427.5	2001.262	8440	2001.262	9245
2001.263	9300	2001.263	9072.5	2001.263	8002.5	2001.263	7937.5	2001.263	8747.5
2001.264	9010	2001.264	8762.5	2001.264	7620	2001.264	7492.5	2001.264	8395
2001.265	8720	2001.265	8492.5	2001.265	7242.5	2001.265	7115	2001.265	7960
2001.266	8435	2001.266	8355	2001.266	6915	2001.266	6700	2001.266	7652.5
2001.267	8315	2001.267	8177.5	2001.267	6610	2001.267	6370	2001.267	7410
2001.268	8122.5	2001.268	8095	2001.268	6362.5	2001.268	6107.5	2001.268	7162.5
2001.269	7750	2001.269	7947.5	2001.269	6060	2001.269	5740	2001.269	6872.5
2001.27	7570	2001.27	7842.5	2001.27	5837.5	2001.27	5520	2001.27	6630
2001.271	7400	2001.271	7702.5	2001.271	5620	2001.271	5242.5	2001.271	6437.5
2001.272	7145	2001.272	7567.5	2001.272	5355	2001.272	4985	2001.272	6152.5
2001.273	7032.5	2001.273	7500	2001.273	5210	2001.273	4760	2001.273	6102.5
2001.274	6832.5	2001.274	7350	2001.274	5022.5	2001.274	4555	2001.274	5807.5
2001.275	6585	2001.275	7190	2001.275	4797.5	2001.275	4270	2001.275	5587.5
2001.276	6492.5	2001.276	6957.5	2001.276	4642.5	2001.276	4065	2001.276	5385
2001.277	6220	2001.277	6727.5	2001.277	4400	2001.277	3812.5	2001.277	5160
2001.278	5862.5	2001.278	6410	2001.278	4195	2001.278	3542.5	2001.278	4930
2001.279	5675	2001.279	6240	2001.279	4015	2001.279	3347.5	2001.279	4677.5
2001.28	5402.5	2001.28	6010	2001.28	3847.5	2001.28	3110	2001.28	4402.5
2001.281	5165	2001.281	5790	2001.281	3655	2001.281	2915	2001.281	4222.5
2001.282	5030	2001.282	5527.5	2001.282	3455	2001.282	2675	2001.282	3967.5
2001.283	4725	2001.283	5300	2001.283	3265	2001.283	2492.5	2001.283	3752.5
2001.284	4587.5	2001.284	5105	2001.284	3122.5	2001.284	2312.5	2001.284	3590
2001.285	4490	2001.285	5005	2001.285	2982.5	2001.285	2115	2001.285	3410
2001.286	4300	2001.286	4862.5	2001.286	2800	2001.286	1945	2001.286	3267.5
2001.287	4085	2001.287	4757.5	2001.287	2620	2001.287	1752.5	2001.287	3080
2001.288	4037.5	2001.288	4667.5	2001.288	2457.5	2001.288	1595	2001.288	3007.5
2001.289	3877.5	2001.289	4585	2001.289	2257.5	2001.289	1345	2001.289	2785
2001.29	3707.5	2001.29	4450	2001.29	2100	2001.29	1195	2001.29	2647.5
2001.291	3532.5	2001.291	4340	2001.291	1887.5	2001.291	967.5	2001.291	2507.5
2001.292	3285	2001.292	4147.5	2001.292	1707.5	2001.292	780	2001.292	2297.5
2001.293	3192.5	2001.293	4012.5	2001.293	1510	2001.293	590	2001.293	2130
2001.294	2942.5	2001.294	3750	2001.294	1317.5	2001.294	370	2001.294	1932.5
2001.295	2717.5	2001.295	3555	2001.295	1145	2001.295	160	2001.295	1670
2001.296	2402.5	2001.296	3270	2001.296	877.5	2001.296	-122.5	2001.296	1455
2001.297	2082.5	2001.297	2940	2001.297	660	2001.297	-290	2001.297	1202.5
2001.298	1757.5	2001.298	2637.5	2001.298	467.5	2001.298	-467.5	2001.298	965
2001.299	1522.5	2001.299	2207.5	2001.299	225	2001.299	-762.5	2001.299	702.5
2001.3	1217.5	2001.3	1975	2001.3	2.5	2001.3	-967.5	2001.3	485
2001.301	975	2001.301	1632.5	2001.301	-197.5	2001.301	-1147.5	2001.301	167.5
2001.302	755	2001.302	1382.5	2001.302	-437.5	2001.302	-1337.5	2001.302	-100
2001.303	562.5	2001.303	1130	2001.303	-605	2001.303	-1575	2001.303	-287.5
2001.304	307.5	2001.304	907.5	2001.304	-785	2001.304	-1730	2001.304	-480
2001.305	102.5	2001.305	697.5	2001.305	-1002.5	2001.305	-1957.5	2001.305	-682.5
2001.306	-10	2001.306	605	2001.306	-1150	2001.306	-2015	2001.306	-812.5
2001.307	-152.5	2001.307	437.5	2001.307	-1332.5	2001.307	-2217.5	2001.307	-967.5
2001.308	-265	2001.308	297.5	2001.308	-1470	2001.308	-2307.5	2001.308	-1145
2001.309	-425	2001.309	172.5	2001.309	-1617.5	2001.309	-2460	2001.309	-1250
2001.31	-680	2001.31	75	2001.31	-1840	2001.31	-2650	2001.31	-1375
2001.311	-787.5	2001.311	-55	2001.311	-2022.5	2001.311	-2817.5	2001.311	-1540
2001.312	-910	2001.312	-202.5	2001.312	-2122.5	2001.312	-2987.5	2001.312	-1687.5
2001.313	-1037.5	2001.313	-322.5	2001.313	-2270	2001.313	-3047.5	2001.313	-1805
2001.314	-1257.5	2001.314	-580	2001.314	-2392.5	2001.314	-3200	2001.314	-1937.5
2001.315	-1482.5	2001.315	-757.5	2001.315	-2535	2001.315	-3295	2001.315	-2090
2001.316	-1667.5	2001.316	-1045	2001.316	-2690	2001.316	-3462.5	2001.316	-2330
2001.317	-1747.5	2001.317	-1185	2001.317	-2882.5	2001.317	-3635	2001.317	-2535
2001.318	-2015	2001.318	-1520	2001.318	-2962.5	2001.318	-3747.5	2001.318	-2645
2001.319	-2222.5	2001.319	-1675	2001.319	-3055	2001.319	-3820	2001.319	-2815
2001.32	-2410	2001.32	-1985	2001.32	-3202.5	2001.32	-3912.5	2001.32	-2925
2001.321	-2572.5	2001.321	-2150	2001.321	-3257.5	2001.321	-3942.5	2001.321	-3125
2001.322	-2787.5	2001.322	-2362.5	2001.322	-3355	2001.322	-4020	2001.322	-3352.5
2001.323	-2777.5	2001.323	-2497.5	2001.323	-3490	2001.323	-4145	2001.323	-3380
2001.324	-2947.5	2001.324	-2567.5	2001.324	-3475	2001.324	-4137.5	2001.324	-3505
2001.325	-2980	2001.325	-2630	2001.325	-3560	2001.325	-4215	2001.325	-3525
2001.326	-3012.5	2001.326	-2655	2001.326	-3635	2001.326	-4222.5	2001.326	-3540
2001.327	-3190	2001.327	-2720	2001.327	-3702.5	2001.327	-4310	2001.327	-3615
2001.328	-3145	2001.328	-2702.5	2001.328	-3705	2001.328	-4257.5	2001.328	-3632.5
2001.329	-3180	2001.329	-2710	2001.329	-3792.5	2001.329	-4347.5	2001.329	-3677.5
2001.33	-3372.5	2001.33	-2757.5	2001.33	-3820	2001.33	-4352.5	2001.33	-3712.5
2001.331	-3302.5	2001.331	-2732.5	2001.331	-3875	2001.331	-4417.5	2001.331	-3710
2001.332	-3265	2001.332	-2732.5	2001.332	-3907.5	2001.332	-4392.5	2001.332	-3832.5
2001.333	-3370	2001.333	-2817.5	2001.333	-3955	2001.333	-4462.5	2001.333	-3832.5
2001.334	-3465	2001.334	-2877.5	2001.334	-4002.5	2001.334	-4515	2001.334	-3857.5
2001.335	-3630	2001.335	-2912.5	2001.335	-4077.5	2001.335	-4540	2001.335	-3967.5
2001.336	-3557.5	2001.336	-3045	2001.336	-4045	2001.336	-4510	2001.336	-3950
2001.337	-3640	2001.337	-3150	2001.337	-4070	2001.337	-4497.5	2001.337	-3962.5
2001.338	-3730	2001.338	-3287.5	2001.338	-4120	2001.338	-4512.5	2001.338	-4082.5
2001.339	-3885	2001.339	-3442.5	2001.339	-4180	2001.339	-4637.5	2001.339	-4147.5
2001.34	-3970	2001.34	-3587.5	2001.34	-4177.5	2001.34	-4600	2001.34	-4267.5
2001.341	-4007.5	2001.341	-3767.5	2001.341	-4212.5	2001.341	-4632.5	2001.341	-4277.5
2001.342	-4115	2001.342	-3822.5	2001.342	-4170	2001.342	-4617.5	2001.342	-4310
2001.343	-4077.5	2001.343	-3885	2001.343	-4180	2001.343	-4612.5	2001.343	-4327.5
2001.344	-4082.5	2001.344	-3922.5	2001.344	-4185	2001.344	-4630	2001.344	-4347.5
2001.345	-4112.5	2001.345	-3890	2001.345	-4237.5	2001.345	-4622.5	2001.345	-4410
2001.346	-4020	2001.346	-3880	2001.346	-4222.5	2001.346	-4620	2001.346	-4355
2001.347	-4045	2001.347	-3862.5	2001.347	-4205	2001.347	-4590	2001.347	-4340
2001.348	-4017.5	2001.348	-3745	2001.348	-4217.5	2001.348	-4517.5	2001.348	-4272.5
2001.349	-3950	2001.349	-3702.5	2001.349	-4232.5	2001.349	-4520	2001.349	-4232.5
2001.35	-3870	2001.35	-3612.5	2001.35	-4200	2001.35	-4510	2001.35	-4200
2001.351	-3860	2001.351	-3595	2001.351	-4170	2001.351	-4475	2001.351	-4150
2001.352	-3857.5	2001.352	-3565	2001.352	-4175	2001.352	-4452.5	2001.352	-4225
2001.353	-3832.5	2001.353	-3520	2001.353	-4185	2001.353	-4492.5	2001.353	-4125
2001.354	-3857.5	2001.354	-3507.5	2001.354	-4140	2001.354	-4465	2001.354	-4110
2001.355	-3882.5	2001.355	-3592.5	2001.355	-4127.5	2001.355	-4440	2001.355	-4155
2001.356	-3930	2001.356	-3757.5	2001.356	-4175	2001.356	-4482.5	2001.356	-4282.5
2001.357	-3970	2001.357	-3800	2001.357	-4160	2001.357	-4455	2001.357	-4270
2001.358	-4040	2001.358	-3885	2001.358	-4195	2001.358	-4455	2001.358	-4330
2001.359	-4135	2001.359	-3935	2001.359	-4157.5	2001.359	-4412.5	2001.359	-4325
2001.36	-4150	2001.36	-4105	2001.36	-4170	2001.36	-4450	2001.36	-4387.5
2001.361	-4247.5	2001.361	-4187.5	2001.361	-4192.5	2001.361	-4477.5	2001.361	-4460
2001.362	-4180	2001.362	-4197.5	2001.362	-4160	2001.362	-4405	2001.362	-4447.5
2001.363	-4125	2001.363	-4177.5	2001.363	-4145	2001.363	-4415	2001.363	-4417.5
2001.364	-4140	2001.364	-4232.5	2001.364	-4130	2001.364	-4400	2001.364	-4425
2001.365	-4135	2001.365	-4152.5	2001.365	-4100	2001.365	-4362.5	2001.365	-4395
2001.366	-4055	2001.366	-4032.5	2001.366	-4037.5	2001.366	-4270	2001.366	-4305
2001.367	-4050	2001.367	-3927.5	2001.367	-4015	2001.367	-4232.5	2001.367	-4225
2001.368	-3942.5	2001.368	-3800	2001.368	-3992.5	2001.368	-4230	2001.368	-4170
2001.369	-3852.5	2001.369	-3747.5	2001.369	-3960	2001.369	-4192.5	2001.369	-4180
2001.37	-3752.5	2001.37	-3675	2001.37	-4002.5	2001.37	-4152.5	2001.37	-4125
2001.371	-3715	2001.371	-3620	2001.371	-3945	2001.371	-4135	2001.371	-4045
2001.372	-3670	2001.372	-3595	2001.372	-3927.5	2001.372	-4107.5	2001.372	-4015
2001.373	-3670	2001.373	-3552.5	2001.373	-3935	2001.373	-4125	2001.373	-3990
2001.374	-3657.5	2001.374	-3572.5	2001.374	-3885	2001.374	-4077.5	2001.374	-3960
2001.375	-3650	2001.375	-3615	2001.375	-3855	2001.375	-4092.5	2001.375	-3922.5
2001.376	-3712.5	2001.376	-3662.5	2001.376	-3920	2001.376	-4122.5	2001.376	-3965
2001.377	-3747.5	2001.377	-3695	2001.377	-3900	2001.377	-4067.5	2001.377	-3982.5
2001.378	-3835	2001.378	-3835	2001.378	-3875	2001.378	-4060	2001.378	-4030
2001.379	-3800	2001.379	-3860	2001.379	-3805	2001.379	-4025	2001.379	-4060
2001.38	-3767.5	2001.38	-3887.5	2001.38	-3795	2001.38	-3985	2001.38	-4007.5
2001.381	-3872.5	2001.381	-3987.5	2001.381	-3762.5	2001.381	-3935	2001.381	-4112.5
2001.382	-3762.5	2001.382	-3985	2001.382	-3757.5	2001.382	-3965	2001.382	-4090
2001.383	-3845	2001.383	-3932.5	2001.383	-3682.5	2001.383	-3890	2001.383	-4062.5
2001.384	-3847.5	2001.384	-3907.5	2001.384	-3697.5	2001.384	-3840	2001.384	-4000
2001.385	-3707.5	2001.385	-3890	2001.385	-3667.5	2001.385	-3860	2001.385	-3995
2001.386	-3685	2001.386	-3830	2001.386	-3660	2001.386	-3830	2001.386	-3937.5
2001.387	-3762.5	2001.387	-3880	2001.387	-3652.5	2001.387	-3872.5	2001.387	-3927.5
2001.388	-3615	2001.388	-3740	2001.388	-3607.5	2001.388	-3807.5	2001.388	-3882.5
2001.389	-3555	2001.389	-3632.5	2001.389	-3605	2001.389	-3782.5	2001.389	-3870
2001.39	-3552.5	2001.39	-3547.5	2001.39	-3605	2001.39	-3772.5	2001.39	-3847.5
2001.391	-3452.5	2001.391	-3497.5	2001.391	-3585	2001.391	-3750	2001.391	-3825
2001.392	-3427.5	2001.392	-3427.5	2001.392	-3565	2001.392	-3730	2001.392	-3695
2001.393	-3442.5	2001.393	-3367.5	2001.393	-3562.5	2001.393	-3712.5	2001.393	-3705
2001.394	-3430	2001.394	-3305	2001.394	-3497.5	2001.394	-3637.5	2001.394	-3610
2001.395	-3302.5	2001.395	-3230	2001.395	-3482.5	2001.395	-3610	2001.395	-3685
2001.396	-3505	2001.396	-3345	2001.396	-3442.5	2001.396	-3632.5	2001.396	-3692.5
2001.397	-3490	2001.397	-3390	2001.397	-3462.5	2001.397	-3670	2001.397	-3755
2001.398	-3475	2001.398	-3515	2001.398	-3467.5	2001.398	-3667.5	2001.398	-3752.5
2001.399	-3580	2001.399	-3580	2001.399	-3467.5	2001.399	-3672.5	2001.399	-3780
2001.4	-3625	2001.4	-3630	2001.4	-3477.5	2001.4	-3652.5	2001.4	-3825
2001.401	-3685	2001.401	-3730	2001.401	-3467.5	2001.401	-3652.5	2001.401	-3842.5
2001.402	-3605	2001.402	-3792.5	2001.402	-3440	2001.402	-3615	2001.402	-3890
2001.403	-3582.5	2001.403	-3767.5	2001.403	-3405	2001.403	-3605	2001.403	-3870
2001.404	-3545	2001.404	-3777.5	2001.404	-3382.5	2001.404	-3585	2001.404	-3872.5
2001.405	-3542.5	2001.405	-3660	2001.405	-3355	2001.405	-3567.5	2001.405	-3857.5
2001.406	-3445	2001.406	-3557.5	2001.406	-3332.5	2001.406	-3460	2001.406	-3755
2001.407	-3380	2001.407	-3522.5	2001.407	-3282.5	2001.407	-3477.5	2001.407	-3685
2001.408	-3192.5	2001.408	-3365	2001.408	-3242.5	2001.408	-3382.5	2001.408	-3640
2001.409	-3160	2001.409	-3277.5	2001.409	-3257.5	2001.409	-3390	2001.409	-3600
2001.41	-3147.5	2001.41	-3122.5	2001.41	-3190	2001.41	-3287.5	2001.41	-3527.5
2001.411	-2997.5	2001.411	-3030	2001.411	-3150	2001.411	-3262.5	2001.411	-3430
2001.412	-3055	2001.412	-3015	2001.412	-3145	2001.412	-3257.5	2001.412	-3392.5
2001.413	-2927.5	2001.413	-2895	2001.413	-3132.5	2001.413	-3267.5	2001.413	-3370
2001.414	-2932.5	2001.414	-2897.5	2001.414	-3095	2001.414	-3187.5	2001.414	-3320
2001.415	-2987.5	2001.415	-2917.5	2001.415	-3077.5	2001.415	-3192.5	2001.415	-3412.5
2001.416	-3067.5	2001.416	-3040	2001.416	-3097.5	2001.416	-3237.5	2001.416	-3412.5
2001.417	-3112.5	2001.417	-3025	2001.417	-3135	2001.417	-3247.5	2001.417	-3500
2001.418	-3172.5	2001.418	-3175	2001.418	-3142.5	2001.418	-3245	2001.418	-3492.5
2001.419	-3242.5	2001.419	-3267.5	2001.419	-3090	2001.419	-3212.5	2001.419	-3615
2001.42	-3295	2001.42	-3357.5	2001.42	-3080	2001.42	-3212.5	2001.42	-3545
2001.421	-3272.5	2001.421	-3377.5	2001.421	-3067.5	2001.421	-3180	2001.421	-3540
2001.422	-3215	2001.422	-3427.5	2001.422	-3050	2001.422	-3182.5	2001.422	-3557.5
2001.423	-3232.5	2001.423	-3430	2001.423	-3037.5	2001.423	-3155	2001.423	-3585
2001.424	-3232.5	2001.424	-3460	2001.424	-2997.5	2001.424	-3075	2001.424	-3532.5
2001.425	-3220	2001.425	-3365	2001.425	-3055	2001.425	-3135	2001.425	-3632.5
2001.426	-3162.5	2001.426	-3272.5	2001.426	-2977.5	2001.426	-3060	2001.426	-3572.5
2001.427	-3140	2001.427	-3232.5	2001.427	-2960	2001.427	-3042.5	2001.427	-3472.5
2001.428	-3095	2001.428	-3067.5	2001.428	-2942.5	2001.428	-3057.5	2001.428	-3450
2001.429	-3080	2001.429	-2980	2001.429	-2882.5	2001.429	-2962.5	2001.429	-3375
2001.43	-2970	2001.43	-2865	2001.43	-2845	2001.43	-2862.5	2001.43	-3325
2001.431	-2862.5	2001.431	-2810	2001.431	-2850	2001.431	-2902.5	2001.431	-3275
2001.432	-2887.5	2001.432	-2810	2001.432	-2900	2001.432	-2940	2001.432	-3257.5
2001.433	-2877.5	2001.433	-2677.5	2001.433	-2872.5	2001.433	-2872.5	2001.433	-3227.5
2001.434	-2797.5	2001.434	-2687.5	2001.434	-2862.5	2001.434	-2835	2001.434	-3180
2001.435	-2780	2001.435	-2672.5	2001.435	-2842.5	2001.435	-2830	2001.435	-3197.5
2001.436	-2925	2001.436	-2685	2001.436	-2787.5	2001.436	-2797.5	2001.436	-3252.5
2001.437	-2835	2001.437	-2772.5	2001.437	-2802.5	2001.437	-2765	2001.437	-3275
2001.438	-2915	2001.438	-2877.5	2001.438	-2785	2001.438	-2757.5	2001.438	-3205
2001.439	-3007.5	2001.439	-2887.5	2001.439	-2760	2001.439	-2750	2001.439	-3200
2001.44	-3002.5	2001.44	-3005	2001.44	-2725	2001.44	-2732.5	2001.44	-3270
2001.441	-2980	2001.441	-2957.5	2001.441	-2740	2001.441	-2740	2001.441	-3187.5
2001.442	-2925	2001.442	-3000	2001.442	-2747.5	2001.442	-2697.5	2001.442	-3240
2001.443	-2995	2001.443	-3035	2001.443	-2747.5	2001.443	-2692.5	2001.443	-3267.5
2001.444	-2975	2001.444	-3035	2001.444	-2735	2001.444	-2680	2001.444	-3305
2001.445	-2940	2001.445	-3002.5	2001.445	-2745	2001.445	-2675	2001.445	-3245
2001.446	-2810	2001.446	-2972.5	2001.446	-2715	2001.446	-2717.5	2001.446	-3190
2001.447	-2762.5	2001.447	-2890	2001.447	-2677.5	2001.447	-2615	2001.447	-3210
2001.448	-2682.5	2001.448	-2737.5	2001.448	-2592.5	2001.448	-2560	2001.448	-3132.5
2001.449	-2620	2001.449	-2672.5	2001.449	-2595	2001.449	-2507.5	2001.449	-3027.5
2001.45	-2542.5	2001.45	-2520	2001.45	-2585	2001.45	-2527.5	2001.45	-2990
2001.451	-2602.5	2001.451	-2420	2001.451	-2560	2001.451	-2465	2001.451	-2877.5
2001.452	-2600	2001.452	-2407.5	2001.452	-2540	2001.452	-2457.5	2001.452	-2840
2001.453	-2550	2001.453	-2347.5	2001.453	-2605	2001.453	-2510	2001.453	-2800
2001.454	-2552.5	2001.454	-2345	2001.454	-2547.5	2001.454	-2482.5	2001.454	-2772.5
2001.455	-2485	2001.455	-2352.5	2001.455	-2565	2001.455	-2497.5	2001.455	-2775
2001.456	-2577.5	2001.456	-2482.5	2001.456	-2580	2001.456	-2480	2001.456	-2800
2001.457	-2510	2001.457	-2470	2001.457	-2605	2001.457	-2507.5	2001.457	-2845
2001.458	-2630	2001.458	-2560	2001.458	-2552.5	2001.458	-2522.5	2001.458	-2942.5
2001.459	-2632.5	2001.459	-2670	2001.459	-2570	2001.459	-2517.5	2001.459	-2940
2001.46	-2672.5	2001.46	-2685	2001.46	-2557.5	2001.46	-2502.5	2001.46	-3030
2001.461	-2742.5	2001.461	-2817.5	2001.461	-2575	2001.461	-2530	2001.461	-3042.5
2001.462	-2792.5	2001.462	-2840	2001.462	-2547.5	2001.462	-2495	2001.462	-3000
2001.463	-2760	2001.463	-2892.5	2001.463	-2540	2001.463	-2535	2001.463	-3100
2001.464	-2725	2001.464	-2840	2001.464	-2485	2001.464	-2465	2001.464	-3067.5
2001.465	-2752.5	2001.465	-2797.5	2001.465	-2505	2001.465	-2492.5	2001.465	-3052.5
2001.466	-2665	2001.466	-2635	2001.466	-2477.5	2001.466	-2412.5	2001.466	-2972.5
2001.467	-2592.5	2001.467	-2562.5	2001.467	-2385	2001.467	-2342.5	2001.467	-2927.5
2001.468	-2455	2001.468	-2507.5	2001.468	-2365	2001.468	-2280	2001.468	-2835
2001.469	-2467.5	2001.469	-2385	2001.469	-2335	2001.469	-2222.5	2001.469	-2785
2001.47	-2415	2001.47	-2340	2001.47	-2322.5	2001.47	-2200	2001.47	-2707.5
2001.471	-2375	2001.471	-2202.5	2001.471	-2300	2001.471	-2182.5	2001.471	-2602.5
2001.472	-2312.5	2001.472	-2220	2001.472	-2295	2001.472	-2165	2001.472	-2687.5
2001.473	-2280	2001.473	-2115	2001.473	-2245	2001.473	-2097.5	2001.473	-2565
2001.474	-2262.5	2001.474	-2135	2001.474	-2245	2001.474	-2102.5	2001.474	-2587.5
2001.475	-2405	2001.475	-2147.5	2001.475	-2200	2001.475	-2052.5	2001.475	-2625
2001.476	-2315	2001.476	-2202.5	2001.476	-2212.5	2001.476	-2112.5	2001.476	-2602.5
2001.477	-2442.5	2001.477	-2285	2001.477	-2237.5	2001.477	-2087.5	2001.477	-2657.5
2001.478	-2417.5	2001.478	-2337.5	2001.478	-2132.5	2001.478	-2025	2001.478	-2640
2001.479	-2437.5	2001.479	-2430	2001.479	-2145	2001.479	-2017.5	2001.479	-2625
2001.48	-2550	2001.48	-2525	2001.48	-2130	2001.48	-2030	2001.48	-2705
2001.481	-2565	2001.481	-2657.5	2001.481	-2192.5	2001.481	-2075	2001.481	-2795
2001.482	-2472.5	2001.482	-2622.5	2001.482	-2152.5	2001.482	-2032.5	2001.482	-2772.5
2001.483	-2520	2001.483	-2672.5	2001.483	-2155	2001.483	-2067.5	2001.483	-2792.5
2001.484	-2637.5	2001.484	-2635	2001.484	-2150	2001.484	-2055	2001.484	-2725
2001.485	-2597.5	2001.485	-2667.5	2001.485	-2132.5	2001.485	-2025	2001.485	-2802.5
2001.486	-2580	2001.486	-2562.5	2001.486	-2125	2001.486	-2007.5	2001.486	-2717.5
2001.487	-2455	2001.487	-2440	2001.487	-2082.5	2001.487	-1975	2001.487	-2692.5
2001.488	-2387.5	2001.488	-2267.5	2001.488	-2047.5	2001.488	-1922.5	2001.488	-2580
2001.489	-2230	2001.489	-2235	2001.489	-2025	2001.489	-1840	2001.489	-2495
2001.49	-2210	2001.49	-2107.5	2001.49	-1942.5	2001.49	-1835	2001.49	-2397.5
2001.491	-2132.5	2001.491	-2027.5	2001.491	-1962.5	2001.491	-1787.5	2001.491	-2270
2001.492	-2125	2001.492	-2027.5	2001.492	-1972.5	2001.492	-1810	2001.492	-2315
2001.493	-2022.5	2001.493	-1940	2001.493	-1885	2001.493	-1735	2001.493	-2240
2001.494	-1955	2001.494	-1940	2001.494	-1927.5	2001.494	-1750	2001.494	-2227.5
2001.495	-2075	2001.495	-1960	2001.495	-1930	2001.495	-1772.5	2001.495	-2242.5
2001.496	-2115	2001.496	-2032.5	2001.496	-1962.5	2001.496	-1822.5	2001.496	-2267.5
2001.497	-2195	2001.497	-2155	2001.497	-1937.5	2001.497	-1772.5	2001.497	-2322.5
2001.498	-2245	2001.498	-2160	2001.498	-1942.5	2001.498	-1765	2001.498	-2432.5
2001.499	-2332.5	2001.499	-2285	2001.499	-1950	2001.499	-1817.5	2001.499	-2387.5
2001.5	-2342.5	2001.5	-2362.5	2001.5	-1937.5	2001.5	-1797.5	2001.5	-2432.5
2001.501	-2385	2001.501	-2385	2001.501	-1930	2001.501	-1797.5	2001.501	-2470
2001.502	-2372.5	2001.502	-2432.5	2001.502	-1912.5	2001.502	-1835	2001.502	-2540
2001.503	-2387.5	2001.503	-2475	2001.503	-1912.5	2001.503	-1805	2001.503	-2480
2001.504	-2410	2001.504	-2562.5	2001.504	-1930	2001.504	-1792.5	2001.504	-2437.5
2001.505	-2395	2001.505	-2485	2001.505	-1892.5	2001.505	-1732.5	2001.505	-2485
2001.506	-2292.5	2001.506	-2390	2001.506	-1880	2001.506	-1745	2001.506	-2395
2001.507	-2345	2001.507	-2425	2001.507	-1870	2001.507	-1747.5	2001.507	-2382.5
2001.508	-2197.5	2001.508	-2262.5	2001.508	-1867.5	2001.508	-1700	2001.508	-2287.5
2001.509	-2172.5	2001.509	-2142.5	2001.509	-1850	2001.509	-1690	2001.509	-2287.5
2001.51	-2140	2001.51	-2062.5	2001.51	-1832.5	2001.51	-1652.5	2001.51	-2292.5
2001.511	-2062.5	2001.511	-1950	2001.511	-1825	2001.511	-1630	2001.511	-2140
2001.512	-1925	2001.512	-1857.5	2001.512	-1815	2001.512	-1640	2001.512	-2107.5
2001.513	-2002.5	2001.513	-1780	2001.513	-1745	2001.513	-1587.5	2001.513	-2082.5
2001.514	-1997.5	2001.514	-1780	2001.514	-1742.5	2001.514	-1510	2001.514	-2040
2001.515	-2075	2001.515	-1782.5	2001.515	-1757.5	2001.515	-1577.5	2001.515	-2047.5
2001.516	-2110	2001.516	-1832.5	2001.516	-1800	2001.516	-1630	2001.516	-2085
2001.517	-2145	2001.517	-1895	2001.517	-1817.5	2001.517	-1650	2001.517	-2105
2001.518	-2275	2001.518	-2067.5	2001.518	-1797.5	2001.518	-1657.5	2001.518	-2177.5
2001.519	-2242.5	2001.519	-2090	2001.519	-1802.5	2001.519	-1640	2001.519	-2210
2001.52	-2287.5	2001.52	-2235	2001.52	-1797.5	2001.52	-1702.5	2001.52	-2217.5
2001.521	-2350	2001.521	-2277.5	2001.521	-1822.5	2001.521	-1690	2001.521	-2322.5
2001.522	-2337.5	2001.522	-2332.5	2001.522	-1792.5	2001.522	-1650	2001.522	-2310
2001.523	-2260	2001.523	-2337.5	2001.523	-1800	2001.523	-1682.5	2001.523	-2212.5
2001.524	-2385	2001.524	-2325	2001.524	-1762.5	2001.524	-1615	2001.524	-2257.5
2001.525	-2300	2001.525	-2250	2001.525	-1775	2001.525	-1625	2001.525	-2182.5
2001.526	-2230	2001.526	-2160	2001.526	-1710	2001.526	-1550	2001.526	-2182.5
2001.527	-2202.5	2001.527	-2125	2001.527	-1757.5	2001.527	-1625	2001.527	-2082.5
2001.528	-2130	2001.528	-2015	2001.528	-1695	2001.528	-1525	2001.528	-2107.5
2001.529	-2047.5	2001.529	-1905	2001.529	-1670	2001.529	-1537.5	2001.529	-1962.5
2001.53	-2015	2001.53	-1810	2001.53	-1667.5	2001.53	-1515	2001.53	-2012.5
2001.531	-1942.5	2001.531	-1705	2001.531	-1652.5	2001.531	-1510	2001.531	-1915
2001.532	-1995	2001.532	-1667.5	2001.532	-1622.5	2001.532	-1457.5	2001.532	-1815
2001.533	-2010	2001.533	-1607.5	2001.533	-1602.5	2001.533	-1440	2001.533	-1857.5
2001.534	-1905	2001.534	-1515	2001.534	-1605	2001.534	-1452.5	2001.534	-1800
2001.535	-1890	2001.535	-1572.5	2001.535	-1582.5	2001.535	-1442.5	2001.535	-1827.5
2001.536	-1935	2001.536	-1630	2001.536	-1627.5	2001.536	-1457.5	2001.536	-1832.5
2001.537	-2032.5	2001.537	-1700	2001.537	-1602.5	2001.537	-1470	2001.537	-1830
2001.538	-2037.5	2001.538	-1777.5	2001.538	-1622.5	2001.538	-1452.5	2001.538	-1857.5
2001.539	-2140	2001.539	-1860	2001.539	-1615	2001.539	-1492.5	2001.539	-1965
2001.54	-2152.5	2001.54	-1977.5	2001.54	-1635	2001.54	-1520	2001.54	-1982.5
2001.541	-2182.5	2001.541	-2105	2001.541	-1657.5	2001.541	-1555	2001.541	-1995
2001.542	-2227.5	2001.542	-2037.5	2001.542	-1622.5	2001.542	-1562.5	2001.542	-2000
2001.543	-2260	2001.543	-2090	2001.543	-1635	2001.543	-1517.5	2001.543	-2062.5
2001.544	-2197.5	2001.544	-2020	2001.544	-1602.5	2001.544	-1467.5	2001.544	-2095
2001.545	-2115	2001.545	-1975	2001.545	-1562.5	2001.545	-1420	2001.545	-1972.5
2001.546	-2097.5	2001.546	-1830	2001.546	-1537.5	2001.546	-1470	2001.546	-1947.5
2001.547	-2010	2001.547	-1757.5	2001.547	-1515	2001.547	-1390	2001.547	-1812.5
2001.548	-1835	2001.548	-1650	2001.548	-1480	2001.548	-1330	2001.548	-1800
2001.549	-1810	2001.549	-1547.5	2001.549	-1465	2001.549	-1350	2001.549	-1742.5
2001.55	-1740	2001.55	-1427.5	2001.55	-1457.5	2001.55	-1327.5	2001.55	-1687.5
2001.551	-1635	2001.551	-1382.5	2001.551	-1445	2001.551	-1307.5	2001.551	-1597.5
2001.552	-1745	2001.552	-1347.5	2001.552	-1437.5	2001.552	-1335	2001.552	-1587.5
2001.553	-1680	2001.553	-1250	2001.553	-1420	2001.553	-1290	2001.553	-1540
2001.554	-1672.5	2001.554	-1332.5	2001.554	-1382.5	2001.554	-1245	2001.554	-1540
2001.555	-1582.5	2001.555	-1267.5	2001.555	-1390	2001.555	-1252.5	2001.555	-1515
2001.556	-1687.5	2001.556	-1350	2001.556	-1427.5	2001.556	-1312.5	2001.556	-1542.5
2001.557	-1737.5	2001.557	-1405	2001.557	-1420	2001.557	-1307.5	2001.557	-1560
2001.558	-1797.5	2001.558	-1455	2001.558	-1385	2001.558	-1255	2001.558	-1675
2001.559	-1877.5	2001.559	-1567.5	2001.559	-1415	2001.559	-1282.5	2001.559	-1645
2001.56	-1850	2001.56	-1572.5	2001.56	-1375	2001.56	-1272.5	2001.56	-1565
2001.561	-1782.5	2001.561	-1595	2001.561	-1337.5	2001.561	-1252.5	2001.561	-1550
2001.562	-1877.5	2001.562	-1585	2001.562	-1350	2001.562	-1252.5	2001.562	-1652.5
2001.563	-1862.5	2001.563	-1647.5	2001.563	-1340	2001.563	-1227.5	2001.563	-1647.5
2001.564	-1802.5	2001.564	-1705	2001.564	-1307.5	2001.564	-1197.5	2001.564	-1682.5
2001.565	-1705	2001.565	-1637.5	2001.565	-1257.5	2001.565	-1167.5	2001.565	-1647.5
2001.566	-1687.5	2001.566	-1470	2001.566	-1297.5	2001.566	-1175	2001.566	-1542.5
2001.567	-1607.5	2001.567	-1482.5	2001.567	-1292.5	2001.567	-1162.5	2001.567	-1515
2001.568	-1527.5	2001.568	-1327.5	2001.568	-1250	2001.568	-1155	2001.568	-1427.5
2001.569	-1482.5	2001.569	-1237.5	2001.569	-1247.5	2001.569	-1115	2001.569	-1427.5
2001.57	-1482.5	2001.57	-1135	2001.57	-1207.5	2001.57	-1105	2001.57	-1362.5
2001.571	-1482.5	2001.571	-1090	2001.571	-1202.5	2001.571	-1112.5	2001.571	-1360
2001.572	-1420	2001.572	-1045	2001.572	-1195	2001.572	-1047.5	2001.572	-1300
2001.573	-1347.5	2001.573	-980	2001.573	-1147.5	2001.573	-1050	2001.573	-1195
2001.574	-1332.5	2001.574	-935	2001.574	-1140	2001.574	-1032.5	2001.574	-1160
2001.575	-1385	2001.575	-942.5	2001.575	-1145	2001.575	-1037.5	2001.575	-1155
2001.576	-1442.5	2001.576	-977.5	2001.576	-1120	2001.576	-1050	2001.576	-1157.5
2001.577	-1370	2001.577	-1030	2001.577	-1147.5	2001.577	-1045	2001.577	-1212.5
2001.578	-1587.5	2001.578	-1127.5	2001.578	-1157.5	2001.578	-1072.5	2001.578	-1232.5
2001.579	-1672.5	2001.579	-1272.5	2001.579	-1240	2001.579	-1150	2001.579	-1352.5
2001.58	-1860	2001.58	-1587.5	2001.58	-1457.5	2001.58	-1390	2001.58	-1582.5
2001.581	-2062.5	2001.581	-1915	2001.581	-1682.5	2001.581	-1617.5	2001.581	-1872.5
2001.582	-2035	2001.582	-1915	2001.582	-1615	2001.582	-1557.5	2001.582	-1830
2001.583	-2355	2001.583	-2220	2001.583	-1990	2001.583	-1925	2001.583	-2212.5
2001.584	-2707.5	2001.584	-2542.5	2001.584	-2285	2001.584	-2207.5	2001.584	-2472.5
2001.585	-2855	2001.585	-2720	2001.585	-2470	2001.585	-2442.5	2001.585	-2712.5
2001.586	-2800	2001.586	-2532.5	2001.586	-2342.5	2001.586	-2287.5	2001.586	-2602.5
2001.587	-2285	2001.587	-2030	2001.587	-1942.5	2001.587	-1860	2001.587	-2010
2001.588	-1680	2001.588	-1445	2001.588	-1350	2001.588	-1277.5	2001.588	-1455
2001.589	-1372.5	2001.589	-1092.5	2001.589	-1037.5	2001.589	-922.5	2001.589	-1115
2001.59	-1125	2001.59	-745	2001.59	-755	2001.59	-647.5	2001.59	-865
2001.591	-535	2001.591	-200	2001.591	-237.5	2001.591	-125	2001.591	-290
2001.592	-287.5	2001.592	127.5	2001.592	52.5	2001.592	170	2001.592	-80
2001.593	-612.5	2001.593	-185	2001.593	-350	2001.593	-257.5	2001.593	-430
2001.594	-630	2001.594	-230	2001.594	-400	2001.594	-290	2001.594	-477.5
2001.595	-815	2001.595	-440	2001.595	-605	2001.595	-507.5	2001.595	-607.5
2001.596	-1607.5	2001.596	-1177.5	2001.596	-1385	2001.596	-1265	2001.596	-1265
2001.597	-2775	2001.597	-2362.5	2001.597	-2592.5	2001.597	-2542.5	2001.597	-2512.5
2001.598	-1990	2001.598	-1627.5	2001.598	-1605	2001.598	-1587.5	2001.598	-1637.5
2001.599	-1507.5	2001.599	-1170	2001.599	-1072.5	2001.599	-997.5	2001.599	-1165
2001.6	-1827.5	2001.6	-1592.5	2001.6	-1417.5	2001.6	-1367.5	2001.6	-1512.5
2001.601	-1822.5	2001.601	-1525	2001.601	-1340	2001.601	-1282.5	2001.601	-1467.5
2001.602	-1787.5	2001.602	-1492.5	2001.602	-1165	2001.602	-1135	2001.602	-1397.5
2001.603	-1925	2001.603	-1710	2001.603	-1445	2001.603	-1415	2001.603	-1620
2001.604	-2187.5	2001.604	-2030	2001.604	-1717.5	2001.604	-1657.5	2001.604	-1825
2001.605	-2247.5	2001.605	-2110	2001.605	-1810	2001.605	-1712.5	2001.605	-1875
2001.606	-2320	2001.606	-2110	2001.606	-1902.5	2001.606	-1820	2001.606	-1970
2001.607	-2887.5	2001.607	-2615	2001.607	-2592.5	2001.607	-2537.5	2001.607	-2537.5
2001.608	-3240	2001.608	-2967.5	2001.608	-3052.5	2001.608	-2967.5	2001.608	-3010
2001.609	-3487.5	2001.609	-3172.5	2001.609	-3310	2001.609	-3285	2001.609	-3222.5
2001.61	-3747.5	2001.61	-3270	2001.61	-3550	2001.61	-3487.5	2001.61	-3397.5
2001.611	-3640	2001.611	-3197.5	2001.611	-3557.5	2001.611	-3460	2001.611	-3422.5
2001.612	-3667.5	2001.612	-3132.5	2001.612	-3565	2001.612	-3487.5	2001.612	-3355
2001.613	-3692.5	2001.613	-3090	2001.613	-3535	2001.613	-3435	2001.613	-3360
2001.614	-3585	2001.614	-3030	2001.614	-3405	2001.614	-3372.5	2001.614	-3195
2001.615	-3502.5	2001.615	-2972.5	2001.615	-3350	2001.615	-3300	2001.615	-3192.5
2001.616	-3425	2001.616	-3080	2001.616	-3275	2001.616	-3215	2001.616	-3105
2001.617	-3447.5	2001.617	-3030	2001.617	-3245	2001.617	-3182.5	2001.617	-3070
2001.618	-3400	2001.618	-2987.5	2001.618	-3127.5	2001.618	-3070	2001.618	-3010
2001.619	-3390	2001.619	-2970	2001.619	-3052.5	2001.619	-2985	2001.619	-3027.5
2001.62	-3275	2001.62	-2922.5	2001.62	-2952.5	2001.62	-2912.5	2001.62	-2972.5
2001.621	-3195	2001.621	-3025	2001.621	-2845	2001.621	-2802.5	2001.621	-2890
2001.622	-3150	2001.622	-2972.5	2001.622	-2735	2001.622	-2670	2001.622	-2790
2001.623	-3085	2001.623	-2945	2001.623	-2670	2001.623	-2615	2001.623	-2712.5
2001.624	-3045	2001.624	-2870	2001.624	-2617.5	2001.624	-2605	2001.624	-2687.5
2001.625	-2932.5	2001.625	-2822.5	2001.625	-2637.5	2001.625	-2562.5	2001.625	-2582.5
2001.626	-2955	2001.626	-2650	2001.626	-2537.5	2001.626	-2482.5	2001.626	-2535
2001.627	-2812.5	2001.627	-2555	2001.627	-2475	2001.627	-2412.5	2001.627	-2460
2001.628	-2695	2001.628	-2375	2001.628	-2380	2001.628	-2327.5	2001.628	-2292.5
2001.629	-2482.5	2001.629	-2177.5	2001.629	-2315	2001.629	-2235	2001.629	-2250
2001.63	-2380	2001.63	-1985	2001.63	-2182.5	2001.63	-2145	2001.63	-2047.5
2001.631	-2337.5	2001.631	-1930	2001.631	-2175	2001.631	-2090	2001.631	-1962.5
2001.632	-2327.5	2001.632	-1815	2001.632	-2057.5	2001.632	-2002.5	2001.632	-1862.5
2001.633	-2205	2001.633	-1715	2001.633	-2067.5	2001.633	-2035	2001.633	-1800
2001.634	-2167.5	2001.634	-1655	2001.634	-2027.5	2001.634	-1955	2001.634	-1797.5
2001.635	-2257.5	2001.635	-1665	2001.635	-2057.5	2001.635	-2000	2001.635	-1772.5
2001.636	-2242.5	2001.636	-1712.5	2001.636	-1992.5	2001.636	-1970	2001.636	-1862.5
2001.637	-2170	2001.637	-1710	2001.637	-1967.5	2001.637	-1945	2001.637	-1780
2001.638	-2172.5	2001.638	-1862.5	2001.638	-1982.5	2001.638	-1915	2001.638	-1742.5
2001.639	-2142.5	2001.639	-1852.5	2001.639	-1977.5	2001.639	-1882.5	2001.639	-1797.5
2001.64	-2267.5	2001.64	-1895	2001.64	-1925	2001.64	-1927.5	2001.64	-1752.5
2001.641	-2300	2001.641	-1952.5	2001.641	-1950	2001.641	-1922.5	2001.641	-1895
2001.642	-2287.5	2001.642	-2010	2001.642	-1962.5	2001.642	-1935	2001.642	-1942.5
2001.643	-2650	2001.643	-2272.5	2001.643	-2250	2001.643	-2195	2001.643	-2222.5
2001.644	-3132.5	2001.644	-3005	2001.644	-3047.5	2001.644	-2997.5	2001.644	-2945
2001.645	-3675	2001.645	-3517.5	2001.645	-3682.5	2001.645	-3640	2001.645	-3450
2001.646	-2575	2001.646	-2552.5	2001.646	-2845	2001.646	-2860	2001.646	-2315
2001.647	862.5	2001.647	687.5	2001.647	-890	2001.647	-1262.5	2001.647	640
2001.648	8005	2001.648	7695	2001.648	4380	2001.648	3332.5	2001.648	6850
2001.649	18807.5	2001.649	18075	2001.649	13315	2001.649	11707.5	2001.649	16347.5
2001.65	30377.5	2001.65	29530	2001.65	25252.5	2001.65	23445	2001.65	27710
2001.651	39660	2001.651	39202.5	2001.651	36055	2001.651	34527.5	2001.651	37382.5
2001.652	44890	2001.652	44800	2001.652	43367.5	2001.652	42655	2001.652	44900
2001.653	44015	2001.653	38715	2001.653	39125	2001.653	42935	2001.653	48595
2001.654	29925	2001.654	10762.5	2001.654	22340	2001.654	32327.5	2001.654	39472.5
2001.655	14917.5	2001.655	-350	2001.655	23887.5	2001.655	34747.5	2001.655	22995
2001.656	5530	2001.656	-422.5	2001.656	35685	2001.656	47815	2001.656	14805
2001.657	935	2001.657	-1717.5	2001.657	-10045	2001.657	-10170	2001.657	-5552.5
2001.658	-3590	2001.658	-3492.5	2001.658	-4747.5	2001.658	-3655	2001.658	-5950
2001.659	-2575	2001.659	-1332.5	2001.659	467.5	2001.659	1585	2001.659	-2535
2001.66	1235	2001.66	2720	2001.66	5155	2001.66	5950	2001.66	1790
2001.661	4665	2001.661	6197.5	2001.661	8790	2001.661	9357.5	2001.661	5285
2001.662	6720	2001.662	8205	2001.662	10885	2001.662	11252.5	2001.662	7440
2001.663	7402.5	2001.663	8877.5	2001.663	11520	2001.663	11792.5	2001.663	8240
2001.664	8797.5	2001.664	10050	2001.664	12935	2001.664	13167.5	2001.664	9820
2001.665	10010	2001.665	11217.5	2001.665	14297.5	2001.665	14570	2001.665	11430
2001.666	11327.5	2001.666	12310	2001.666	15590	2001.666	15962.5	2001.666	12967.5
2001.667	12662.5	2001.667	13322.5	2001.667	16892.5	2001.667	17455	2001.667	14532.5
2001.668	13795	2001.668	14182.5	2001.668	17932.5	2001.668	18727.5	2001.668	15920
2001.669	14787.5	2001.669	14852.5	2001.669	18895	2001.669	19872.5	2001.669	17235
2001.67	15797.5	2001.67	15587.5	2001.67	19640	2001.67	20837.5	2001.67	18400
2001.671	16707.5	2001.671	16217.5	2001.671	20220	2001.671	21585	2001.671	19347.5
2001.672	17417.5	2001.672	16797.5	2001.672	20530	2001.672	21972.5	2001.672	20077.5
2001.673	17935	2001.673	17310	2001.673	20687.5	2001.673	22105	2001.673	20645
2001.674	18177.5	2001.674	17582.5	2001.674	20537.5	2001.674	22020	2001.674	20845
2001.675	18342.5	2001.675	17732.5	2001.675	20335	2001.675	21772.5	2001.675	20852.5
2001.676	18300	2001.676	17775	2001.676	19985	2001.676	21387.5	2001.676	20602.5
2001.677	18297.5	2001.677	17640	2001.677	19547.5	2001.677	20885	2001.677	20380
2001.678	18075	2001.678	17387.5	2001.678	19010	2001.678	20237.5	2001.678	19877.5
2001.679	17665	2001.679	17050	2001.679	18387.5	2001.679	19517.5	2001.679	19370
2001.68	17192.5	2001.68	16607.5	2001.68	17730	2001.68	18790	2001.68	18757.5
2001.681	16717.5	2001.681	16115	2001.681	17050	2001.681	17970	2001.681	18075
2001.682	16140	2001.682	15700	2001.682	16357.5	2001.682	17227.5	2001.682	17412.5
2001.683	15645	2001.683	15197.5	2001.683	15695	2001.683	16465	2001.683	16657.5
2001.684	15167.5	2001.684	14780	2001.684	15065	2001.684	15750	2001.684	16085
2001.685	14707.5	2001.685	14297.5	2001.685	14475	2001.685	15040	2001.685	15502.5
2001.686	14332.5	2001.686	13950	2001.686	13875	2001.686	14407.5	2001.686	14930
2001.687	13935	2001.687	13545	2001.687	13292.5	2001.687	13762.5	2001.687	14375
2001.688	13447.5	2001.688	13205	2001.688	12665	2001.688	13107.5	2001.688	13832.5
2001.689	13007.5	2001.689	12840	2001.689	12152.5	2001.689	12517.5	2001.689	13360
2001.69	12715	2001.69	12552.5	2001.69	11610	2001.69	11970	2001.69	12780
2001.691	12287.5	2001.691	12212.5	2001.691	11132.5	2001.691	11405	2001.691	12340
2001.692	11840	2001.692	11857.5	2001.692	10652.5	2001.692	10822.5	2001.692	11877.5
2001.693	11485	2001.693	11587.5	2001.693	10192.5	2001.693	10315	2001.693	11435
2001.694	11100	2001.694	11192.5	2001.694	9717.5	2001.694	9822.5	2001.694	10920
2001.695	10567.5	2001.695	10825	2001.695	9240	2001.695	9320	2001.695	10530
2001.696	10240	2001.696	10302.5	2001.696	8802.5	2001.696	8832.5	2001.696	10010
2001.697	9907.5	2001.697	9965	2001.697	8410	2001.697	8350	2001.697	9525
2001.698	9422.5	2001.698	9647.5	2001.698	8000	2001.698	7945	2001.698	9060
2001.699	9067.5	2001.699	9180	2001.699	7615	2001.699	7435	2001.699	8637.5
2001.7	8690	2001.7	8857.5	2001.7	7320	2001.7	7075	2001.7	8285
2001.701	8392.5	2001.701	8550	2001.701	6927.5	2001.701	6705	2001.701	7820
2001.702	8117.5	2001.702	8260	2001.702	6652.5	2001.702	6360	2001.702	7580
2001.703	7872.5	2001.703	7977.5	2001.703	6402.5	2001.703	6075	2001.703	7257.5
2001.704	7572.5	2001.704	7820	2001.704	6190	2001.704	5830	2001.704	7097.5
2001.705	7407.5	2001.705	7650	2001.705	5932.5	2001.705	5522.5	2001.705	6717.5
2001.706	7335	2001.706	7572.5	2001.706	5682.5	2001.706	5295	2001.706	6642.5
2001.707	7112.5	2001.707	7442.5	2001.707	5470	2001.707	5015	2001.707	6400
2001.708	7035	2001.708	7450	2001.708	5350	2001.708	4877.5	2001.708	6297.5
2001.709	6922.5	2001.709	7360	2001.709	5160	2001.709	4635	2001.709	6072.5
2001.71	6820	2001.71	7267.5	2001.71	4997.5	2001.71	4445	2001.71	5955
2001.711	6697.5	2001.711	7275	2001.711	4810	2001.711	4230	2001.711	5712.5
2001.712	6450	2001.712	7092.5	2001.712	4585	2001.712	3985	2001.712	5617.5
2001.713	6242.5	2001.713	6962.5	2001.713	4422.5	2001.713	3795	2001.713	5392.5
2001.714	6095	2001.714	6772.5	2001.714	4245	2001.714	3550	2001.714	5187.5
2001.715	5855	2001.715	6625	2001.715	4072.5	2001.715	3370	2001.715	4982.5
2001.716	5720	2001.716	6382.5	2001.716	3890	2001.716	3157.5	2001.716	4757.5
2001.717	5472.5	2001.717	6155	2001.717	3712.5	2001.717	2937.5	2001.717	4557.5
2001.718	5287.5	2001.718	5927.5	2001.718	3487.5	2001.718	2680	2001.718	4325
2001.719	4900	2001.719	5657.5	2001.719	3372.5	2001.719	2547.5	2001.719	4145
2001.72	4735	2001.72	5387.5	2001.72	3197.5	2001.72	2325	2001.72	3847.5
2001.721	4492.5	2001.721	5095	2001.721	3020	2001.721	2125	2001.721	3770
2001.722	4305	2001.722	4847.5	2001.722	2815	2001.722	1900	2001.722	3467.5
2001.723	4165	2001.723	4632.5	2001.723	2640	2001.723	1707.5	2001.723	3297.5
2001.724	3920	2001.724	4462.5	2001.724	2472.5	2001.724	1477.5	2001.724	2997.5
2001.725	3705	2001.725	4267.5	2001.725	2277.5	2001.725	1337.5	2001.725	2832.5
2001.726	3557.5	2001.726	4200	2001.726	2165	2001.726	1162.5	2001.726	2645
2001.727	3417.5	2001.727	4020	2001.727	1972.5	2001.727	990	2001.727	2612.5
2001.728	3262.5	2001.728	3997.5	2001.728	1817.5	2001.728	840	2001.728	2467.5
2001.729	3160	2001.729	3805	2001.729	1615	2001.729	662.5	2001.729	2197.5
2001.73	2997.5	2001.73	3700	2001.73	1442.5	2001.73	500	2001.73	2135
2001.731	2835	2001.731	3567.5	2001.731	1282.5	2001.731	332.5	2001.731	1930
2001.732	2697.5	2001.732	3422.5	2001.732	1110	2001.732	175	2001.732	1752.5
2001.733	2475	2001.733	3205	2001.733	942.5	2001.733	-35	2001.733	1585
2001.734	2210	2001.734	3020	2001.734	725	2001.734	-202.5	2001.734	1372.5
2001.735	1867.5	2001.735	2697.5	2001.735	472.5	2001.735	-447.5	2001.735	1127.5
2001.736	1662.5	2001.736	2332.5	2001.736	217.5	2001.736	-722.5	2001.736	905
2001.737	1262.5	2001.737	2040	2001.737	-45	2001.737	-935	2001.737	582.5
2001.738	1025	2001.738	1702.5	2001.738	-222.5	2001.738	-1167.5	2001.738	370
2001.739	762.5	2001.739	1482.5	2001.739	-385	2001.739	-1337.5	2001.739	145
2001.74	457.5	2001.74	1012.5	2001.74	-617.5	2001.74	-1545	2001.74	-162.5
2001.741	110	2001.741	770	2001.741	-852.5	2001.741	-1792.5	2001.741	-342.5
2001.742	2.5	2001.742	480	2001.742	-1070	2001.742	-1947.5	2001.742	-615
2001.743	-295	2001.743	250	2001.743	-1180	2001.743	-2095	2001.743	-815
2001.744	-372.5	2001.744	0	2001.744	-1335	2001.744	-2195	2001.744	-1015
2001.745	-547.5	2001.745	-147.5	2001.745	-1530	2001.745	-2385	2001.745	-1160
2001.746	-697.5	2001.746	-317.5	2001.746	-1697.5	2001.746	-2575	2001.746	-1342.5
2001.747	-850	2001.747	-377.5	2001.747	-1837.5	2001.747	-2672.5	2001.747	-1462.5
2001.748	-942.5	2001.748	-442.5	2001.748	-1957.5	2001.748	-2792.5	2001.748	-1602.5
2001.749	-1152.5	2001.749	-535	2001.749	-2100	2001.749	-2880	2001.749	-1612.5
2001.75	-1147.5	2001.75	-607.5	2001.75	-2202.5	2001.75	-2992.5	2001.75	-1722.5
2001.751	-1210	2001.751	-645	2001.751	-2297.5	2001.751	-3045	2001.751	-1802.5
2001.752	-1412.5	2001.752	-725	2001.752	-2377.5	2001.752	-3142.5	2001.752	-1950
2001.753	-1477.5	2001.753	-855	2001.753	-2492.5	2001.753	-3235	2001.753	-2062.5
2001.754	-1680	2001.754	-997.5	2001.754	-2650	2001.754	-3325	2001.754	-2175
2001.755	-1865	2001.755	-1182.5	2001.755	-2755	2001.755	-3435	2001.755	-2317.5
2001.756	-1945	2001.756	-1407.5	2001.756	-2902.5	2001.756	-3580	2001.756	-2477.5
2001.757	-2147.5	2001.757	-1595	2001.757	-2987.5	2001.757	-3652.5	2001.757	-2580
2001.758	-2302.5	2001.758	-1800	2001.758	-3080	2001.758	-3762.5	2001.758	-2755
2001.759	-2552.5	2001.759	-2020	2001.759	-3200	2001.759	-3842.5	2001.759	-2937.5
2001.76	-2697.5	2001.76	-2195	2001.76	-3257.5	2001.76	-3942.5	2001.76	-3080
2001.761	-2717.5	2001.761	-2370	2001.761	-3325	2001.761	-3980	2001.761	-3125
2001.762	-2882.5	2001.762	-2502.5	2001.762	-3420	2001.762	-4042.5	2001.762	-3205
2001.763	-2880	2001.763	-2642.5	2001.763	-3477.5	2001.763	-4110	2001.763	-3352.5
2001.764	-3025	2001.764	-2670	2001.764	-3522.5	2001.764	-4155	2001.764	-3390
2001.765	-3047.5	2001.765	-2715	2001.765	-3562.5	2001.765	-4127.5	2001.765	-3447.5
2001.766	-3080	2001.766	-2742.5	2001.766	-3622.5	2001.766	-4140	2001.766	-3462.5
2001.767	-3005	2001.767	-2755	2001.767	-3612.5	2001.767	-4177.5	2001.767	-3515
2001.768	-3015	2001.768	-2745	2001.768	-3652.5	2001.768	-4200	2001.768	-3457.5
2001.769	-2892.5	2001.769	-2722.5	2001.769	-3662.5	2001.769	-4187.5	2001.769	-3447.5
2001.77	-2975	2001.77	-2652.5	2001.77	-3712.5	2001.77	-4220	2001.77	-3467.5
2001.771	-3012.5	2001.771	-2665	2001.771	-3742.5	2001.771	-4232.5	2001.771	-3460
2001.772	-3005	2001.772	-2617.5	2001.772	-3757.5	2001.772	-4212.5	2001.772	-3500
2001.773	-3012.5	2001.773	-2627.5	2001.773	-3712.5	2001.773	-4207.5	2001.773	-3435
2001.774	-3035	2001.774	-2690	2001.774	-3797.5	2001.774	-4232.5	2001.774	-3525
2001.775	-3207.5	2001.775	-2820	2001.775	-3812.5	2001.775	-4265	2001.775	-3560
2001.776	-3305	2001.776	-2890	2001.776	-3842.5	2001.776	-4272.5	2001.776	-3620
2001.777	-3340	2001.777	-2957.5	2001.777	-3820	2001.777	-4235	2001.777	-3640
2001.778	-3462.5	2001.778	-3080	2001.778	-3882.5	2001.778	-4290	2001.778	-3717.5
2001.779	-3555	2001.779	-3215	2001.779	-3910	2001.779	-4317.5	2001.779	-3840
2001.78	-3562.5	2001.78	-3320	2001.78	-3890	2001.78	-4290	2001.78	-3800
2001.781	-3560	2001.781	-3455	2001.781	-3945	2001.781	-4360	2001.781	-3965
2001.782	-3652.5	2001.782	-3452.5	2001.782	-3845	2001.782	-4252.5	2001.782	-3942.5
2001.783	-3587.5	2001.783	-3437.5	2001.783	-3807.5	2001.783	-4187.5	2001.783	-3917.5
2001.784	-3590	2001.784	-3462.5	2001.784	-3765	2001.784	-4112.5	2001.784	-3842.5
2001.785	-3562.5	2001.785	-3455	2001.785	-3775	2001.785	-4127.5	2001.785	-3830
2001.786	-3552.5	2001.786	-3430	2001.786	-3812.5	2001.786	-4132.5	2001.786	-3790
2001.787	-3475	2001.787	-3385	2001.787	-3805	2001.787	-4120	2001.787	-3802.5
2001.788	-3470	2001.788	-3337.5	2001.788	-3772.5	2001.788	-4092.5	2001.788	-3777.5
2001.789	-3487.5	2001.789	-3300	2001.789	-3785	2001.789	-4075	2001.789	-3742.5
2001.79	-3375	2001.79	-3200	2001.79	-3770	2001.79	-4067.5	2001.79	-3737.5
2001.791	-3307.5	2001.791	-3080	2001.791	-3762.5	2001.791	-4045	2001.791	-3702.5
2001.792	-3190	2001.792	-3082.5	2001.792	-3757.5	2001.792	-3990	2001.792	-3642.5
2001.793	-3265	2001.793	-2995	2001.793	-3747.5	2001.793	-4005	2001.793	-3717.5
2001.794	-3347.5	2001.794	-3040	2001.794	-3740	2001.794	-3967.5	2001.794	-3632.5
2001.795	-3260	2001.795	-3057.5	2001.795	-3695	2001.795	-3977.5	2001.795	-3647.5
2001.796	-3405	2001.796	-3160	2001.796	-3735	2001.796	-3982.5	2001.796	-3685
2001.797	-3450	2001.797	-3180	2001.797	-3717.5	2001.797	-3937.5	2001.797	-3657.5
2001.798	-3425	2001.798	-3365	2001.798	-3675	2001.798	-3950	2001.798	-3767.5
2001.799	-3602.5	2001.799	-3527.5	2001.799	-3742.5	2001.799	-3967.5	2001.799	-3852.5
2001.8	-3577.5	2001.8	-3562.5	2001.8	-3742.5	2001.8	-4005	2001.8	-3852.5
2001.801	-3707.5	2001.801	-3640	2001.801	-3727.5	2001.801	-3987.5	2001.801	-3880
2001.802	-3657.5	2001.802	-3620	2001.802	-3745	2001.802	-3987.5	2001.802	-3847.5
2001.803	-3582.5	2001.803	-3665	2001.803	-3722.5	2001.803	-3990	2001.803	-3870
2001.804	-3632.5	2001.804	-3712.5	2001.804	-3735	2001.804	-3995	2001.804	-3940
2001.805	-3505	2001.805	-3600	2001.805	-3690	2001.805	-3922.5	2001.805	-3867.5
2001.806	-3415	2001.806	-3452.5	2001.806	-3635	2001.806	-3835	2001.806	-3735
2001.807	-3410	2001.807	-3312.5	2001.807	-3560	2001.807	-3780	2001.807	-3662.5
2001.808	-3370	2001.808	-3317.5	2001.808	-3537.5	2001.808	-3740	2001.808	-3605
2001.809	-3310	2001.809	-3235	2001.809	-3492.5	2001.809	-3712.5	2001.809	-3607.5
2001.81	-3170	2001.81	-3120	2001.81	-3482.5	2001.81	-3717.5	2001.81	-3555
2001.811	-3070	2001.811	-3057.5	2001.811	-3422.5	2001.811	-3622.5	2001.811	-3427.5
2001.812	-3135	2001.812	-3012.5	2001.812	-3432.5	2001.812	-3585	2001.812	-3382.5
2001.813	-3090	2001.813	-2967.5	2001.813	-3407.5	2001.813	-3597.5	2001.813	-3402.5
2001.814	-3070	2001.814	-2962.5	2001.814	-3385	2001.814	-3565	2001.814	-3325
2001.815	-3007.5	2001.815	-2970	2001.815	-3357.5	2001.815	-3522.5	2001.815	-3350
2001.816	-3235	2001.816	-3055	2001.816	-3417.5	2001.816	-3627.5	2001.816	-3385
2001.817	-3200	2001.817	-3132.5	2001.817	-3410	2001.817	-3590	2001.817	-3505
2001.818	-3277.5	2001.818	-3252.5	2001.818	-3460	2001.818	-3597.5	2001.818	-3525
2001.819	-3352.5	2001.819	-3322.5	2001.819	-3482.5	2001.819	-3652.5	2001.819	-3597.5
2001.82	-3367.5	2001.82	-3417.5	2001.82	-3465	2001.82	-3627.5	2001.82	-3617.5
2001.821	-3475	2001.821	-3465	2001.821	-3467.5	2001.821	-3652.5	2001.821	-3667.5
2001.822	-3517.5	2001.822	-3567.5	2001.822	-3482.5	2001.822	-3660	2001.822	-3632.5
2001.823	-3477.5	2001.823	-3605	2001.823	-3455	2001.823	-3635	2001.823	-3665
2001.824	-3575	2001.824	-3610	2001.824	-3442.5	2001.824	-3650	2001.824	-3712.5
2001.825	-3422.5	2001.825	-3582.5	2001.825	-3410	2001.825	-3600	2001.825	-3672.5
2001.826	-3390	2001.826	-3442.5	2001.826	-3367.5	2001.826	-3505	2001.826	-3587.5
2001.827	-3250	2001.827	-3355	2001.827	-3340	2001.827	-3517.5	2001.827	-3495
2001.828	-3212.5	2001.828	-3282.5	2001.828	-3325	2001.828	-3442.5	2001.828	-3477.5
2001.829	-3095	2001.829	-3232.5	2001.829	-3272.5	2001.829	-3375	2001.829	-3400
2001.83	-3082.5	2001.83	-3112.5	2001.83	-3300	2001.83	-3380	2001.83	-3360
2001.831	-2995	2001.831	-2992.5	2001.831	-3217.5	2001.831	-3355	2001.831	-3292.5
2001.832	-2972.5	2001.832	-2925	2001.832	-3215	2001.832	-3290	2001.832	-3205
2001.833	-2897.5	2001.833	-2922.5	2001.833	-3205	2001.833	-3302.5	2001.833	-3197.5
2001.834	-2857.5	2001.834	-2850	2001.834	-3167.5	2001.834	-3297.5	2001.834	-3212.5
2001.835	-2932.5	2001.835	-2835	2001.835	-3175	2001.835	-3265	2001.835	-3220
2001.836	-3002.5	2001.836	-2940	2001.836	-3140	2001.836	-3265	2001.836	-3230
2001.837	-3047.5	2001.837	-2910	2001.837	-3102.5	2001.837	-3212.5	2001.837	-3260
2001.838	-2967.5	2001.838	-3010	2001.838	-3100	2001.838	-3205	2001.838	-3272.5
2001.839	-3067.5	2001.839	-3060	2001.839	-3075	2001.839	-3230	2001.839	-3335
2001.84	-3140	2001.84	-3182.5	2001.84	-3072.5	2001.84	-3152.5	2001.84	-3315
2001.841	-3075	2001.841	-3285	2001.841	-3025	2001.841	-3150	2001.841	-3332.5
2001.842	-3162.5	2001.842	-3285	2001.842	-3047.5	2001.842	-3145	2001.842	-3357.5
2001.843	-3150	2001.843	-3307.5	2001.843	-3037.5	2001.843	-3140	2001.843	-3397.5
2001.844	-3010	2001.844	-3330	2001.844	-2997.5	2001.844	-3130	2001.844	-3355
2001.845	-2945	2001.845	-3242.5	2001.845	-2960	2001.845	-3087.5	2001.845	-3267.5
2001.846	-2935	2001.846	-3142.5	2001.846	-2940	2001.846	-3027.5	2001.846	-3172.5
2001.847	-2960	2001.847	-3012.5	2001.847	-2917.5	2001.847	-3035	2001.847	-3117.5
2001.848	-2860	2001.848	-2885	2001.848	-2872.5	2001.848	-2985	2001.848	-3122.5
2001.849	-2752.5	2001.849	-2857.5	2001.849	-2840	2001.849	-2870	2001.849	-3047.5
2001.85	-2610	2001.85	-2695	2001.85	-2785	2001.85	-2852.5	2001.85	-2965
2001.851	-2577.5	2001.851	-2507.5	2001.851	-2680	2001.851	-2717.5	2001.851	-2810
2001.852	-2517.5	2001.852	-2462.5	2001.852	-2652.5	2001.852	-2730	2001.852	-2760
2001.853	-2400	2001.853	-2277.5	2001.853	-2567.5	2001.853	-2630	2001.853	-2607.5
2001.854	-2310	2001.854	-2272.5	2001.854	-2547.5	2001.854	-2600	2001.854	-2615
2001.855	-2352.5	2001.855	-2315	2001.855	-2560	2001.855	-2605	2001.855	-2645
2001.856	-2347.5	2001.856	-2417.5	2001.856	-2532.5	2001.856	-2585	2001.856	-2625
2001.857	-2472.5	2001.857	-2485	2001.857	-2550	2001.857	-2627.5	2001.857	-2697.5
2001.858	-2655	2001.858	-2570	2001.858	-2612.5	2001.858	-2702.5	2001.858	-2817.5
2001.859	-2665	2001.859	-2720	2001.859	-2645	2001.859	-2680	2001.859	-2885
2001.86	-2612.5	2001.86	-2770	2001.86	-2655	2001.86	-2725	2001.86	-2895
2001.861	-2720	2001.861	-2942.5	2001.861	-2667.5	2001.861	-2745	2001.861	-2932.5
2001.862	-2820	2001.862	-2920	2001.862	-2700	2001.862	-2760	2001.862	-3012.5
2001.863	-2762.5	2001.863	-2990	2001.863	-2702.5	2001.863	-2787.5	2001.863	-2987.5
2001.864	-2765	2001.864	-3015	2001.864	-2690	2001.864	-2752.5	2001.864	-3045
2001.865	-2740	2001.865	-2985	2001.865	-2700	2001.865	-2790	2001.865	-2945
2001.866	-2612.5	2001.866	-2822.5	2001.866	-2635	2001.866	-2647.5	2001.866	-2917.5
2001.867	-2565	2001.867	-2787.5	2001.867	-2647.5	2001.867	-2685	2001.867	-2887.5
2001.868	-2482.5	2001.868	-2635	2001.868	-2602.5	2001.868	-2630	2001.868	-2790
2001.869	-2490	2001.869	-2567.5	2001.869	-2582.5	2001.869	-2547.5	2001.869	-2772.5
2001.87	-2420	2001.87	-2462.5	2001.87	-2572.5	2001.87	-2582.5	2001.87	-2662.5
2001.871	-2477.5	2001.871	-2355	2001.871	-2560	2001.871	-2565	2001.871	-2700
2001.872	-2357.5	2001.872	-2232.5	2001.872	-2475	2001.872	-2420	2001.872	-2627.5
2001.873	-2345	2001.873	-2207.5	2001.873	-2420	2001.873	-2392.5	2001.873	-2487.5
2001.874	-2292.5	2001.874	-2155	2001.874	-2410	2001.874	-2422.5	2001.874	-2480
2001.875	-2315	2001.875	-2217.5	2001.875	-2395	2001.875	-2400	2001.875	-2510
2001.876	-2375	2001.876	-2285	2001.876	-2430	2001.876	-2377.5	2001.876	-2565
2001.877	-2357.5	2001.877	-2335	2001.877	-2417.5	2001.877	-2437.5	2001.877	-2637.5
2001.878	-2447.5	2001.878	-2470	2001.878	-2462.5	2001.878	-2410	2001.878	-2685
2001.879	-2527.5	2001.879	-2637.5	2001.879	-2510	2001.879	-2452.5	2001.879	-2752.5
2001.88	-2510	2001.88	-2622.5	2001.88	-2487.5	2001.88	-2447.5	2001.88	-2715
2001.881	-2650	2001.881	-2787.5	2001.881	-2532.5	2001.881	-2512.5	2001.881	-2815
2001.882	-2547.5	2001.882	-2760	2001.882	-2505	2001.882	-2467.5	2001.882	-2715
2001.883	-2582.5	2001.883	-2800	2001.883	-2480	2001.883	-2465	2001.883	-2737.5
2001.884	-2605	2001.884	-2810	2001.884	-2422.5	2001.884	-2427.5	2001.884	-2735
2001.885	-2522.5	2001.885	-2717.5	2001.885	-2427.5	2001.885	-2422.5	2001.885	-2662.5
2001.886	-2522.5	2001.886	-2667.5	2001.886	-2420	2001.886	-2345	2001.886	-2695
2001.887	-2542.5	2001.887	-2515	2001.887	-2412.5	2001.887	-2367.5	2001.887	-2577.5
2001.888	-2340	2001.888	-2357.5	2001.888	-2367.5	2001.888	-2327.5	2001.888	-2557.5
2001.889	-2360	2001.889	-2315	2001.889	-2422.5	2001.889	-2357.5	2001.889	-2570
2001.89	-2287.5	2001.89	-2307.5	2001.89	-2417.5	2001.89	-2372.5	2001.89	-2482.5
2001.891	-2220	2001.891	-2192.5	2001.891	-2445	2001.891	-2352.5	2001.891	-2417.5
2001.892	-2240	2001.892	-2160	2001.892	-2390	2001.892	-2272.5	2001.892	-2410
2001.893	-2265	2001.893	-2112.5	2001.893	-2417.5	2001.893	-2327.5	2001.893	-2447.5
2001.894	-2167.5	2001.894	-2050	2001.894	-2362.5	2001.894	-2225	2001.894	-2442.5
2001.895	-2275	2001.895	-2097.5	2001.895	-2390	2001.895	-2325	2001.895	-2367.5
2001.896	-2292.5	2001.896	-2217.5	2001.896	-2397.5	2001.896	-2280	2001.896	-2445
2001.897	-2325	2001.897	-2247.5	2001.897	-2412.5	2001.897	-2382.5	2001.897	-2432.5
2001.898	-2410	2001.898	-2295	2001.898	-2390	2001.898	-2302.5	2001.898	-2452.5
2001.899	-2445	2001.899	-2390	2001.899	-2367.5	2001.899	-2307.5	2001.899	-2467.5
2001.9	-2485	2001.9	-2482.5	2001.9	-2350	2001.9	-2237.5	2001.9	-2470
2001.901	-2462.5	2001.901	-2537.5	2001.901	-2380	2001.901	-2265	2001.901	-2482.5
2001.902	-2377.5	2001.902	-2605	2001.902	-2292.5	2001.902	-2195	2001.902	-2447.5
2001.903	-2467.5	2001.903	-2587.5	2001.903	-2280	2001.903	-2192.5	2001.903	-2497.5
2001.904	-2460	2001.904	-2577.5	2001.904	-2265	2001.904	-2157.5	2001.904	-2462.5
2001.905	-2325	2001.905	-2592.5	2001.905	-2242.5	2001.905	-2167.5	2001.905	-2457.5
2001.906	-2310	2001.906	-2467.5	2001.906	-2155	2001.906	-2060	2001.906	-2382.5
2001.907	-2210	2001.907	-2457.5	2001.907	-2155	2001.907	-2027.5	2001.907	-2310
2001.908	-2225	2001.908	-2290	2001.908	-2120	2001.908	-2042.5	2001.908	-2255
2001.909	-2200	2001.909	-2212.5	2001.909	-2140	2001.909	-2000	2001.909	-2257.5
2001.91	-2232.5	2001.91	-2232.5	2001.91	-2180	2001.91	-2030	2001.91	-2305
2001.911	-2147.5	2001.911	-2080	2001.911	-2160	2001.911	-1970	2001.911	-2190
2001.912	-2132.5	2001.912	-2075	2001.912	-2115	2001.912	-1962.5	2001.912	-2137.5
2001.913	-2152.5	2001.913	-1995	2001.913	-2095	2001.913	-1927.5	2001.913	-2172.5
2001.914	-2152.5	2001.914	-2007.5	2001.914	-2130	2001.914	-1927.5	2001.914	-2190
2001.915	-2175	2001.915	-2017.5	2001.915	-2095	2001.915	-1940	2001.915	-2112.5
2001.916	-2130	2001.916	-2107.5	2001.916	-2107.5	2001.916	-1915	2001.916	-2105
2001.917	-2295	2001.917	-2207.5	2001.917	-2052.5	2001.917	-1927.5	2001.917	-2190
2001.918	-2427.5	2001.918	-2320	2001.918	-2102.5	2001.918	-1950	2001.918	-2250
2001.919	-2410	2001.919	-2377.5	2001.919	-2085	2001.919	-1920	2001.919	-2215
2001.92	-2457.5	2001.92	-2422.5	2001.92	-2065	2001.92	-1910	2001.92	-2237.5
2001.921	-2442.5	2001.921	-2527.5	2001.921	-2047.5	2001.921	-1915	2001.921	-2250
2001.922	-2470	2001.922	-2512.5	2001.922	-2050	2001.922	-1927.5	2001.922	-2312.5
2001.923	-2502.5	2001.923	-2592.5	2001.923	-2060	2001.923	-1900	2001.923	-2307.5
2001.924	-2500	2001.924	-2565	2001.924	-2047.5	2001.924	-1897.5	2001.924	-2287.5
2001.925	-2417.5	2001.925	-2515	2001.925	-2010	2001.925	-1835	2001.925	-2260
2001.926	-2455	2001.926	-2412.5	2001.926	-2000	2001.926	-1837.5	2001.926	-2235
2001.927	-2425	2001.927	-2340	2001.927	-1965	2001.927	-1810	2001.927	-2162.5
2001.928	-2237.5	2001.928	-2202.5	2001.928	-1935	2001.928	-1770	2001.928	-2112.5
2001.929	-2150	2001.929	-2020	2001.929	-1870	2001.929	-1717.5	2001.929	-1950
2001.93	-2100	2001.93	-1950	2001.93	-1862.5	2001.93	-1607.5	2001.93	-1907.5
2001.931	-2047.5	2001.931	-1935	2001.931	-1820	2001.931	-1635	2001.931	-1865
2001.932	-2057.5	2001.932	-1817.5	2001.932	-1762.5	2001.932	-1585	2001.932	-1820
2001.933	-2080	2001.933	-1747.5	2001.933	-1772.5	2001.933	-1580	2001.933	-1780
2001.934	-2042.5	2001.934	-1835	2001.934	-1795	2001.934	-1557.5	2001.934	-1762.5
2001.935	-2045	2001.935	-1807.5	2001.935	-1765	2001.935	-1582.5	2001.935	-1770
2001.936	-2162.5	2001.936	-1907.5	2001.936	-1770	2001.936	-1592.5	2001.936	-1912.5
2001.937	-2152.5	2001.937	-2032.5	2001.937	-1847.5	2001.937	-1635	2001.937	-1880
2001.938	-2290	2001.938	-2095	2001.938	-1835	2001.938	-1625	2001.938	-1902.5
2001.939	-2297.5	2001.939	-2105	2001.939	-1795	2001.939	-1672.5	2001.939	-1822.5
2001.94	-2237.5	2001.94	-2117.5	2001.94	-1740	2001.94	-1545	2001.94	-1815
2001.941	-2240	2001.941	-2170	2001.941	-1670	2001.941	-1502.5	2001.941	-1887.5
2001.942	-2247.5	2001.942	-2175	2001.942	-1677.5	2001.942	-1495	2001.942	-1857.5
2001.943	-2270	2001.943	-2085	2001.943	-1590	2001.943	-1470	2001.943	-1825
2001.944	-2187.5	2001.944	-2142.5	2001.944	-1607.5	2001.944	-1450	2001.944	-1770
2001.945	-2185	2001.945	-2060	2001.945	-1540	2001.945	-1367.5	2001.945	-1675
2001.946	-2080	2001.946	-1922.5	2001.946	-1552.5	2001.946	-1335	2001.946	-1620
2001.947	-2090	2001.947	-1942.5	2001.947	-1527.5	2001.947	-1357.5	2001.947	-1597.5
2001.948	-1985	2001.948	-1857.5	2001.948	-1542.5	2001.948	-1375	2001.948	-1582.5
2001.949	-2060	2001.949	-1787.5	2001.949	-1490	2001.949	-1342.5	2001.949	-1552.5
2001.95	-2022.5	2001.95	-1717.5	2001.95	-1537.5	2001.95	-1347.5	2001.95	-1512.5
2001.951	-1937.5	2001.951	-1625	2001.951	-1502.5	2001.951	-1280	2001.951	-1512.5
2001.952	-2000	2001.952	-1665	2001.952	-1537.5	2001.952	-1360	2001.952	-1415
2001.953	-1987.5	2001.953	-1582.5	2001.953	-1547.5	2001.953	-1350	2001.953	-1520
2001.954	-1950	2001.954	-1600	2001.954	-1547.5	2001.954	-1330	2001.954	-1472.5
2001.955	-2057.5	2001.955	-1627.5	2001.955	-1575	2001.955	-1372.5	2001.955	-1460
2001.956	-2080	2001.956	-1675	2001.956	-1595	2001.956	-1340	2001.956	-1505
2001.957	-2185	2001.957	-1775	2001.957	-1600	2001.957	-1377.5	2001.957	-1547.5
2001.958	-2215	2001.958	-1880	2001.958	-1610	2001.958	-1430	2001.958	-1607.5
2001.959	-2202.5	2001.959	-1887.5	2001.959	-1617.5	2001.959	-1415	2001.959	-1657.5
2001.96	-2237.5	2001.96	-2035	2001.96	-1612.5	2001.96	-1410	2001.96	-1600
2001.961	-2232.5	2001.961	-2077.5	2001.961	-1602.5	2001.961	-1422.5	2001.961	-1650
2001.962	-2327.5	2001.962	-2045	2001.962	-1587.5	2001.962	-1427.5	2001.962	-1645
2001.963	-2195	2001.963	-2085	2001.963	-1567.5	2001.963	-1422.5	2001.963	-1605
2001.964	-2200	2001.964	-2070	2001.964	-1567.5	2001.964	-1405	2001.964	-1562.5
2001.965	-2230	2001.965	-2117.5	2001.965	-1585	2001.965	-1352.5	2001.965	-1592.5
2001.966	-2137.5	2001.966	-1965	2001.966	-1545	2001.966	-1370	2001.966	-1592.5
2001.967	-2160	2001.967	-1922.5	2001.967	-1565	2001.967	-1380	2001.967	-1532.5
2001.968	-1967.5	2001.968	-1735	2001.968	-1502.5	2001.968	-1317.5	2001.968	-1502.5
2001.969	-1952.5	2001.969	-1660	2001.969	-1462.5	2001.969	-1275	2001.969	-1340
2001.97	-1897.5	2001.97	-1630	2001.97	-1462.5	2001.97	-1272.5	2001.97	-1327.5
2001.971	-1925	2001.971	-1547.5	2001.971	-1490	2001.971	-1302.5	2001.971	-1360
2001.972	-1905	2001.972	-1482.5	2001.972	-1475	2001.972	-1355	2001.972	-1282.5
2001.973	-1952.5	2001.973	-1425	2001.973	-1475	2001.973	-1302.5	2001.973	-1322.5
2001.974	-1895	2001.974	-1497.5	2001.974	-1535	2001.974	-1367.5	2001.974	-1370
2001.975	-1887.5	2001.975	-1432.5	2001.975	-1510	2001.975	-1305	2001.975	-1287.5
2001.976	-1942.5	2001.976	-1555	2001.976	-1482.5	2001.976	-1307.5	2001.976	-1300
2001.977	-2065	2001.977	-1592.5	2001.977	-1510	2001.977	-1327.5	2001.977	-1305
2001.978	-2102.5	2001.978	-1670	2001.978	-1540	2001.978	-1350	2001.978	-1415
2001.979	-2125	2001.979	-1747.5	2001.979	-1535	2001.979	-1377.5	2001.979	-1440
2001.98	-2100	2001.98	-1807.5	2001.98	-1515	2001.98	-1382.5	2001.98	-1417.5
2001.981	-2170	2001.981	-1830	2001.981	-1485	2001.981	-1337.5	2001.981	-1410
2001.982	-2150	2001.982	-1865	2001.982	-1502.5	2001.982	-1405	2001.982	-1435
2001.983	-2165	2001.983	-1955	2001.983	-1470	2001.983	-1407.5	2001.983	-1462.5
2001.984	-2210	2001.984	-1915	2001.984	-1487.5	2001.984	-1335	2001.984	-1447.5
2001.985	-2230	2001.985	-1972.5	2001.985	-1472.5	2001.985	-1355	2001.985	-1465
2001.986	-2045	2001.986	-1752.5	2001.986	-1412.5	2001.986	-1300	2001.986	-1407.5
2001.987	-1982.5	2001.987	-1655	2001.987	-1395	2001.987	-1242.5	2001.987	-1270
2001.988	-1960	2001.988	-1612.5	2001.988	-1405	2001.988	-1277.5	2001.988	-1235
2001.989	-1845	2001.989	-1457.5	2001.989	-1382.5	2001.989	-1220	2001.989	-1157.5
2001.99	-1857.5	2001.99	-1390	2001.99	-1375	2001.99	-1177.5	2001.99	-1130
2001.991	-1750	2001.991	-1275	2001.991	-1362.5	2001.991	-1202.5	2001.991	-1037.5
2001.992	-1757.5	2001.992	-1132.5	2001.992	-1375	2001.992	-1180	2001.992	-987.5
2001.993	-1665	2001.993	-1155	2001.993	-1365	2001.993	-1175	2001.993	-1010
2001.994	-1727.5	2001.994	-1110	2001.994	-1350	2001.994	-1160	2001.994	-1057.5
2001.995	-1740	2001.995	-1122.5	2001.995	-1352.5	2001.995	-1200	2001.995	-992.5
2001.996	-1792.5	2001.996	-1197.5	2001.996	-1342.5	2001.996	-1205	2001.996	-1047.5
2001.997	-1855	2001.997	-1295	2001.997	-1337.5	2001.997	-1190	2001.997	-1105
2001.998	-1910	2001.998	-1355	2001.998	-1340	2001.998	-1220	2001.998	-1125
2001.999	-1892.5	2001.999	-1465	2001.999	-1322.5	2001.999	-1205	2001.999	-1210
2002	-1885	2002	-1450	2002	-1287.5	2002	-1180	2002	-1215
2002.001	-2027.5	2002.001	-1447.5	2002.001	-1267.5	2002.001	-1137.5	2002.001	-1215
2002.002	-1995	2002.002	-1522.5	2002.002	-1300	2002.002	-1155	2002.002	-1192.5
2002.003	-2040	2002.003	-1590	2002.003	-1297.5	2002.003	-1165	2002.003	-1180
2002.004	-2010	2002.004	-1605	2002.004	-1300	2002.004	-1195	2002.004	-1197.5
2002.005	-1905	2002.005	-1557.5	2002.005	-1317.5	2002.005	-1215	2002.005	-1230
2002.006	-1872.5	2002.006	-1465	2002.006	-1285	2002.006	-1192.5	2002.006	-1190
2002.007	-1802.5	2002.007	-1335	2002.007	-1247.5	2002.007	-1222.5	2002.007	-1102.5
2002.008	-1737.5	2002.008	-1257.5	2002.008	-1282.5	2002.008	-1177.5	2002.008	-1017.5
2002.009	-1695	2002.009	-1192.5	2002.009	-1232.5	2002.009	-1102.5	2002.009	-1040
2002.01	-1712.5	2002.01	-1047.5	2002.01	-1215	2002.01	-1082.5	2002.01	-917.5
2002.011	-1707.5	2002.011	-992.5	2002.011	-1242.5	2002.011	-1152.5	2002.011	-905
2002.012	-1612.5	2002.012	-955	2002.012	-1260	2002.012	-1157.5	2002.012	-887.5
2002.013	-1570	2002.013	-990	2002.013	-1235	2002.013	-1130	2002.013	-915
2002.014	-1502.5	2002.014	-927.5	2002.014	-1240	2002.014	-1112.5	2002.014	-850
2002.015	-1602.5	2002.015	-1002.5	2002.015	-1277.5	2002.015	-1205	2002.015	-982.5
2002.016	-1710	2002.016	-1032.5	2002.016	-1247.5	2002.016	-1147.5	2002.016	-915
2002.017	-1740	2002.017	-1185	2002.017	-1357.5	2002.017	-1240	2002.017	-1035
2002.018	-1977.5	2002.018	-1362.5	2002.018	-1545	2002.018	-1462.5	2002.018	-1237.5
2002.019	-2317.5	2002.019	-1715	2002.019	-1710	2002.019	-1625	2002.019	-1470
2002.02	-2347.5	2002.02	-1827.5	2002.02	-1757.5	2002.02	-1672.5	2002.02	-1487.5
2002.021	-2710	2002.021	-2277.5	2002.021	-2147.5	2002.021	-2045	2002.021	-1880
2002.022	-3060	2002.022	-2620	2002.022	-2507.5	2002.022	-2402.5	2002.022	-2237.5
2002.023	-3202.5	2002.023	-2837.5	2002.023	-2677.5	2002.023	-2602.5	2002.023	-2425
2002.024	-2945	2002.024	-2577.5	2002.024	-2332.5	2002.024	-2212.5	2002.024	-2127.5
2002.025	-2382.5	2002.025	-2057.5	2002.025	-1852.5	2002.025	-1750	2002.025	-1652.5
2002.026	-1880	2002.026	-1497.5	2002.026	-1275	2002.026	-1150	2002.026	-1155
2002.027	-1545	2002.027	-1107.5	2002.027	-977.5	2002.027	-847.5	2002.027	-820
2002.028	-1335	2002.028	-800	2002.028	-692.5	2002.028	-590	2002.028	-477.5
2002.029	-675	2002.029	-200	2002.029	-172.5	2002.029	-77.5	2002.029	135
2002.03	-535	2002.03	-25	2002.03	-90	2002.03	25	2002.03	230
2002.031	-920	2002.031	-322.5	2002.031	-535	2002.031	-427.5	2002.031	-152.5
2002.032	-827.5	2002.032	-232.5	2002.032	-437.5	2002.032	-310	2002.032	-52.5
2002.033	-1125	2002.033	-550	2002.033	-837.5	2002.033	-717.5	2002.033	-402.5
2002.034	-2035	2002.034	-1452.5	2002.034	-1900	2002.034	-1775	2002.034	-1357.5
2002.035	-2962.5	2002.035	-2290	2002.035	-2710	2002.035	-2610	2002.035	-2162.5
2002.036	-1937.5	2002.036	-1295	2002.036	-1465	2002.036	-1352.5	2002.036	-1125
2002.037	-1730	2002.037	-1190	2002.037	-1310	2002.037	-1172.5	2002.037	-980
2002.038	-2000	2002.038	-1537.5	2002.038	-1557.5	2002.038	-1460	2002.038	-1252.5
2002.039	-2110	2002.039	-1567.5	2002.039	-1522.5	2002.039	-1457.5	2002.039	-1232.5
2002.04	-2047.5	2002.04	-1512.5	2002.04	-1440	2002.04	-1355	2002.04	-1262.5
2002.041	-2370	2002.041	-1945	2002.041	-1827.5	2002.041	-1727.5	2002.041	-1615
2002.042	-2582.5	2002.042	-2197.5	2002.042	-1987.5	2002.042	-1935	2002.042	-1735
2002.043	-2580	2002.043	-2217.5	2002.043	-2015	2002.043	-1930	2002.043	-1790
2002.044	-2780	2002.044	-2415	2002.044	-2215	2002.044	-2107.5	2002.044	-1987.5
2002.045	-3382.5	2002.045	-3037.5	2002.045	-2987.5	2002.045	-2905	2002.045	-2752.5
2002.046	-3615	2002.046	-3257.5	2002.046	-3325	2002.046	-3222.5	2002.046	-3040
2002.047	-3935	2002.047	-3470	2002.047	-3597.5	2002.047	-3482.5	2002.047	-3310
2002.048	-4010	2002.048	-3450	2002.048	-3777.5	2002.048	-3712.5	2002.048	-3392.5
2002.049	-3995	2002.049	-3482.5	2002.049	-3790	2002.049	-3725	2002.049	-3362.5
2002.05	-3960	2002.05	-3295	2002.05	-3732.5	2002.05	-3637.5	2002.05	-3365
2002.051	-3932.5	2002.051	-3187.5	2002.051	-3652.5	2002.051	-3547.5	2002.051	-3210
2002.052	-3702.5	2002.052	-3047.5	2002.052	-3570	2002.052	-3485	2002.052	-3127.5
2002.053	-3522.5	2002.053	-2967.5	2002.053	-3477.5	2002.053	-3355	2002.053	-3015
2002.054	-3440	2002.054	-2872.5	2002.054	-3440	2002.054	-3352.5	2002.054	-2912.5
2002.055	-3330	2002.055	-2857.5	2002.055	-3345	2002.055	-3235	2002.055	-2887.5
2002.056	-3332.5	2002.056	-2880	2002.056	-3287.5	2002.056	-3182.5	2002.056	-2795
2002.057	-3295	2002.057	-2777.5	2002.057	-3200	2002.057	-3122.5	2002.057	-2757.5
2002.058	-3215	2002.058	-2830	2002.058	-3125	2002.058	-3052.5	2002.058	-2677.5
2002.059	-3207.5	2002.059	-2865	2002.059	-3067.5	2002.059	-2987.5	2002.059	-2687.5
2002.06	-3050	2002.06	-2810	2002.06	-2952.5	2002.06	-2890	2002.06	-2607.5
2002.061	-3070	2002.061	-2812.5	2002.061	-2870	2002.061	-2825	2002.061	-2567.5
2002.062	-2970	2002.062	-2732.5	2002.062	-2752.5	2002.062	-2737.5	2002.062	-2560
2002.063	-2900	2002.063	-2677.5	2002.063	-2707.5	2002.063	-2695	2002.063	-2500
2002.064	-2872.5	2002.064	-2640	2002.064	-2680	2002.064	-2600	2002.064	-2445
2002.065	-2732.5	2002.065	-2612.5	2002.065	-2592.5	2002.065	-2557.5	2002.065	-2357.5
2002.066	-2657.5	2002.066	-2462.5	2002.066	-2545	2002.066	-2492.5	2002.066	-2247.5
2002.067	-2567.5	2002.067	-2360	2002.067	-2435	2002.067	-2382.5	2002.067	-2122.5
2002.068	-2372.5	2002.068	-2152.5	2002.068	-2347.5	2002.068	-2340	2002.068	-2010
2002.069	-2387.5	2002.069	-2035	2002.069	-2327.5	2002.069	-2260	2002.069	-1922.5
2002.07	-2235	2002.07	-1917.5	2002.07	-2257.5	2002.07	-2212.5	2002.07	-1810
2002.071	-2137.5	2002.071	-1832.5	2002.071	-2245	2002.071	-2240	2002.071	-1705
2002.072	-2175	2002.072	-1832.5	2002.072	-2212.5	2002.072	-2182.5	2002.072	-1685
2002.073	-2152.5	2002.073	-1725	2002.073	-2210	2002.073	-2142.5	2002.073	-1717.5
2002.074	-2180	2002.074	-1670	2002.074	-2160	2002.074	-2105	2002.074	-1607.5
2002.075	-2067.5	2002.075	-1657.5	2002.075	-2180	2002.075	-2090	2002.075	-1590
2002.076	-2052.5	2002.076	-1755	2002.076	-2152.5	2002.076	-2130	2002.076	-1597.5
2002.077	-2100	2002.077	-1762.5	2002.077	-2130	2002.077	-2082.5	2002.077	-1650
2002.078	-2245	2002.078	-1857.5	2002.078	-2150	2002.078	-2117.5	2002.078	-1657.5
2002.079	-2277.5	2002.079	-1945	2002.079	-2195	2002.079	-2207.5	2002.079	-1817.5
2002.08	-2470	2002.08	-2155	2002.08	-2322.5	2002.08	-2307.5	2002.08	-1917.5
2002.081	-2855	2002.081	-2582.5	2002.081	-2790	2002.081	-2762.5	2002.081	-2397.5
2002.082	-3685	2002.082	-3437.5	2002.082	-3675	2002.082	-3652.5	2002.082	-3237.5
2002.083	-4005	2002.083	-3752.5	2002.083	-4005	2002.083	-3980	2002.083	-3527.5
2002.084	-2175	2002.084	-2192.5	2002.084	-2792.5	2002.084	-2837.5	2002.084	-1710
2002.085	2172.5	2002.085	1897.5	2002.085	55	2002.085	-492.5	2002.085	2152.5
2002.086	10195	2002.086	9735	2002.086	6250	2002.086	5082.5	2002.086	9210
2002.087	21307.5	2002.087	20530	2002.087	16195	2002.087	14635	2002.087	19530
2002.088	32462.5	2002.088	31672.5	2002.088	28177.5	2002.088	26527.5	2002.088	30667.5
2002.089	40890	2002.089	40410	2002.089	38207.5	2002.089	37087.5	2002.089	39660
2002.09	44047.5	2002.09	43165	2002.09	43350	2002.09	43670	2002.09	45840
2002.091	39550	2002.091	29237.5	2002.091	32462.5	2002.091	38840	2002.091	46212.5
2002.092	23870	2002.092	5895	2002.092	22065	2002.092	32115	2002.092	33260
2002.093	11597.5	2002.093	-412.5	2002.093	28282.5	2002.093	39617.5	2002.093	19840
2002.094	2012.5	2002.094	-2840	2002.094	23075	2002.094	32780	2002.094	7727.5
2002.095	-2840	2002.095	-3380	2002.095	-9450	2002.095	-9100	2002.095	-6600
2002.096	-3542.5	2002.096	-2882.5	2002.096	-3095	2002.096	-1917.5	2002.096	-4440
2002.097	-1397.5	2002.097	72.5	2002.097	1545	2002.097	2552.5	2002.097	-1085
2002.098	2830	2002.098	4340	2002.098	6275	2002.098	6957.5	2002.098	3462.5
2002.099	5795	2002.099	7257.5	2002.099	9355	2002.099	9787.5	2002.099	6545
2002.1	7227.5	2002.1	8687.5	2002.1	10740	2002.1	11070	2002.1	7995
2002.101	7995	2002.101	9282.5	2002.101	11525	2002.101	11782.5	2002.101	8960
2002.102	9322.5	2002.102	10377.5	2002.102	12957.5	2002.102	13157.5	2002.102	10425
2002.103	10517.5	2002.103	11457.5	2002.103	14270	2002.103	14567.5	2002.103	11942.5
2002.104	11770	2002.104	12487.5	2002.104	15615	2002.104	16070	2002.104	13552.5
2002.105	12947.5	2002.105	13395	2002.105	16875	2002.105	17515	2002.105	15060
2002.106	13995	2002.106	14172.5	2002.106	17900	2002.106	18732.5	2002.106	16417.5
2002.107	15065	2002.107	14862.5	2002.107	18820	2002.107	19885	2002.107	17640
2002.108	16020	2002.108	15632.5	2002.108	19497.5	2002.108	20730	2002.108	18750
2002.109	16795	2002.109	16277.5	2002.109	19977.5	2002.109	21337.5	2002.109	19632.5
2002.11	17567.5	2002.11	16892.5	2002.11	20252.5	2002.11	21650	2002.11	20292.5
2002.111	18165	2002.111	17360	2002.111	20350	2002.111	21762.5	2002.111	20787.5
2002.112	18455	2002.112	17710	2002.112	20230	2002.112	21650	2002.112	20967.5
2002.113	18650	2002.113	17852.5	2002.113	20000	2002.113	21387.5	2002.113	21015
2002.114	18660	2002.114	17895	2002.114	19605	2002.114	20925	2002.114	20790
2002.115	18470	2002.115	17757.5	2002.115	19127.5	2002.115	20417.5	2002.115	20452.5
2002.116	18057.5	2002.116	17482.5	2002.116	18562.5	2002.116	19697.5	2002.116	19980
2002.117	17780	2002.117	17047.5	2002.117	17907.5	2002.117	19000	2002.117	19340
2002.118	17275	2002.118	16597.5	2002.118	17270	2002.118	18277.5	2002.118	18667.5
2002.119	16670	2002.119	16017.5	2002.119	16595	2002.119	17500	2002.119	17980
2002.12	16025	2002.12	15545	2002.12	15922.5	2002.12	16710	2002.12	17322.5
2002.121	15437.5	2002.121	15047.5	2002.121	15207.5	2002.121	15907.5	2002.121	16555
2002.122	14942.5	2002.122	14435	2002.122	14485	2002.122	15100	2002.122	15887.5
2002.123	14250	2002.123	13955	2002.123	13870	2002.123	14390	2002.123	15170
2002.124	13765	2002.124	13462.5	2002.124	13240	2002.124	13740	2002.124	14547.5
2002.125	13360	2002.125	12987.5	2002.125	12662.5	2002.125	13070	2002.125	14027.5
2002.126	12875	2002.126	12660	2002.126	12070	2002.126	12392.5	2002.126	13495
2002.127	12372.5	2002.127	12245	2002.127	11482.5	2002.127	11785	2002.127	12865
2002.128	12050	2002.128	11942.5	2002.128	10990	2002.128	11217.5	2002.128	12477.5
2002.129	11532.5	2002.129	11615	2002.129	10435	2002.129	10640	2002.129	11955
2002.13	11172.5	2002.13	11187.5	2002.13	9925	2002.13	10067.5	2002.13	11362.5
2002.131	10785	2002.131	10907.5	2002.131	9445	2002.131	9557.5	2002.131	10925
2002.132	10422.5	2002.132	10525	2002.132	8990	2002.132	9060	2002.132	10610
2002.133	9970	2002.133	10202.5	2002.133	8562.5	2002.133	8560	2002.133	10147.5
2002.134	9592.5	2002.134	9882.5	2002.134	8135	2002.134	8085	2002.134	9697.5
2002.135	9265	2002.135	9490	2002.135	7757.5	2002.135	7687.5	2002.135	9285
2002.136	8975	2002.136	9135	2002.136	7402.5	2002.136	7227.5	2002.136	8892.5
2002.137	8562.5	2002.137	8765	2002.137	7002.5	2002.137	6760	2002.137	8410
2002.138	8250	2002.138	8395	2002.138	6690	2002.138	6490	2002.138	8117.5
2002.139	8017.5	2002.139	8160	2002.139	6432.5	2002.139	6137.5	2002.139	7787.5
2002.14	7777.5	2002.14	7877.5	2002.14	6167.5	2002.14	5890	2002.14	7442.5
2002.141	7472.5	2002.141	7580	2002.141	5872.5	2002.141	5510	2002.141	7177.5
2002.142	7170	2002.142	7282.5	2002.142	5637.5	2002.142	5220	2002.142	6832.5
2002.143	6930	2002.143	7070	2002.143	5390	2002.143	4932.5	2002.143	6577.5
2002.144	6770	2002.144	6852.5	2002.144	5185	2002.144	4702.5	2002.144	6300
2002.145	6542.5	2002.145	6727.5	2002.145	4947.5	2002.145	4465	2002.145	6112.5
2002.146	6350	2002.146	6630	2002.146	4762.5	2002.146	4242.5	2002.146	5895
2002.147	6310	2002.147	6520	2002.147	4562.5	2002.147	4007.5	2002.147	5730
2002.148	6182.5	2002.148	6482.5	2002.148	4397.5	2002.148	3790	2002.148	5642.5
2002.149	5980	2002.149	6365	2002.149	4245	2002.149	3585	2002.149	5405
2002.15	5822.5	2002.15	6325	2002.15	4082.5	2002.15	3400	2002.15	5337.5
2002.151	5747.5	2002.151	6295	2002.151	3922.5	2002.151	3252.5	2002.151	5152.5
2002.152	5487.5	2002.152	6130	2002.152	3697.5	2002.152	2980	2002.152	4982.5
2002.153	5250	2002.153	5995	2002.153	3475	2002.153	2775	2002.153	4740
2002.154	5075	2002.154	5840	2002.154	3340	2002.154	2560	2002.154	4617.5
2002.155	4842.5	2002.155	5702.5	2002.155	3165	2002.155	2400	2002.155	4350
2002.156	4655	2002.156	5377.5	2002.156	2972.5	2002.156	2160	2002.156	4100
2002.157	4390	2002.157	5185	2002.157	2777.5	2002.157	1990	2002.157	3875
2002.158	4152.5	2002.158	4937.5	2002.158	2585	2002.158	1742.5	2002.158	3627.5
2002.159	3967.5	2002.159	4625	2002.159	2465	2002.159	1585	2002.159	3427.5
2002.16	3672.5	2002.16	4352.5	2002.16	2250	2002.16	1352.5	2002.16	3100
2002.161	3500	2002.161	4045	2002.161	2127.5	2002.161	1190	2002.161	2880
2002.162	3297.5	2002.162	3797.5	2002.162	1900	2002.162	922.5	2002.162	2660
2002.163	2957.5	2002.163	3612.5	2002.163	1697.5	2002.163	750	2002.163	2455
2002.164	2840	2002.164	3422.5	2002.164	1505	2002.164	537.5	2002.164	2265
2002.165	2635	2002.165	3235	2002.165	1295	2002.165	365	2002.165	2027.5
2002.166	2475	2002.166	3047.5	2002.166	1122.5	2002.166	237.5	2002.166	1905
2002.167	2367.5	2002.167	2907.5	2002.167	1007.5	2002.167	17.5	2002.167	1677.5
2002.168	2175	2002.168	2830	2002.168	822.5	2002.168	-142.5	2002.168	1490
2002.169	1957.5	2002.169	2675	2002.169	612.5	2002.169	-360	2002.169	1372.5
2002.17	1710	2002.17	2512.5	2002.17	397.5	2002.17	-565	2002.17	1225
2002.171	1560	2002.171	2380	2002.171	217.5	2002.171	-695	2002.171	1000
2002.172	1445	2002.172	2167.5	2002.172	-2.5	2002.172	-937.5	2002.172	825
2002.173	1155	2002.173	2007.5	2002.173	-237.5	2002.173	-1155	2002.173	657.5
2002.174	895	2002.174	1747.5	2002.174	-385	2002.174	-1345	2002.174	480
2002.175	690	2002.175	1515	2002.175	-585	2002.175	-1467.5	2002.175	252.5
2002.176	407.5	2002.176	1220	2002.176	-767.5	2002.176	-1645	2002.176	55
2002.177	137.5	2002.177	930	2002.177	-1002.5	2002.177	-1892.5	2002.177	-205
2002.178	-252.5	2002.178	670	2002.178	-1177.5	2002.178	-2082.5	2002.178	-437.5
2002.179	-432.5	2002.179	365	2002.179	-1377.5	2002.179	-2217.5	2002.179	-685
2002.18	-757.5	2002.18	35	2002.18	-1542.5	2002.18	-2430	2002.18	-982.5
2002.181	-1057.5	2002.181	-335	2002.181	-1755	2002.181	-2647.5	2002.181	-1225
2002.182	-1160	2002.182	-615	2002.182	-1930	2002.182	-2807.5	2002.182	-1420
2002.183	-1372.5	2002.183	-817.5	2002.183	-2072.5	2002.183	-2912.5	2002.183	-1587.5
2002.184	-1642.5	2002.184	-1035	2002.184	-2240	2002.184	-3067.5	2002.184	-1760
2002.185	-1745	2002.185	-1172.5	2002.185	-2407.5	2002.185	-3192.5	2002.185	-1915
2002.186	-1887.5	2002.186	-1277.5	2002.186	-2552.5	2002.186	-3327.5	2002.186	-2085
2002.187	-1972.5	2002.187	-1447.5	2002.187	-2757.5	2002.187	-3490	2002.187	-2197.5
2002.188	-2142.5	2002.188	-1462.5	2002.188	-2797.5	2002.188	-3555	2002.188	-2295
2002.189	-2267.5	2002.189	-1567.5	2002.189	-2965	2002.189	-3672.5	2002.189	-2397.5
2002.19	-2450	2002.19	-1690	2002.19	-3067.5	2002.19	-3790	2002.19	-2555
2002.191	-2442.5	2002.191	-1727.5	2002.191	-3160	2002.191	-3900	2002.191	-2605
2002.192	-2617.5	2002.192	-1925	2002.192	-3250	2002.192	-3957.5	2002.192	-2667.5
2002.193	-2680	2002.193	-1957.5	2002.193	-3367.5	2002.193	-4000	2002.193	-2812.5
2002.194	-2855	2002.194	-2110	2002.194	-3480	2002.194	-4077.5	2002.194	-2902.5
2002.195	-3035	2002.195	-2275	2002.195	-3592.5	2002.195	-4180	2002.195	-3065
2002.196	-3222.5	2002.196	-2490	2002.196	-3610	2002.196	-4225	2002.196	-3180
2002.197	-3282.5	2002.197	-2627.5	2002.197	-3692.5	2002.197	-4260	2002.197	-3245
2002.198	-3415	2002.198	-2810	2002.198	-3760	2002.198	-4340	2002.198	-3347.5
2002.199	-3597.5	2002.199	-2987.5	2002.199	-3847.5	2002.199	-4405	2002.199	-3485
2002.2	-3680	2002.2	-3212.5	2002.2	-3875	2002.2	-4475	2002.2	-3567.5
2002.201	-3845	2002.201	-3362.5	2002.201	-4015	2002.201	-4580	2002.201	-3680
2002.202	-3907.5	2002.202	-3447.5	2002.202	-4022.5	2002.202	-4595	2002.202	-3835
2002.203	-3990	2002.203	-3537.5	2002.203	-4070	2002.203	-4632.5	2002.203	-3862.5
2002.204	-3955	2002.204	-3612.5	2002.204	-4065	2002.204	-4632.5	2002.204	-3905
2002.205	-3937.5	2002.205	-3622.5	2002.205	-4065	2002.205	-4525	2002.205	-3855
2002.206	-3947.5	2002.206	-3547.5	2002.206	-4067.5	2002.206	-4567.5	2002.206	-3845
2002.207	-4035	2002.207	-3525	2002.207	-4145	2002.207	-4612.5	2002.207	-3870
2002.208	-3972.5	2002.208	-3560	2002.208	-4192.5	2002.208	-4617.5	2002.208	-3865
2002.209	-4015	2002.209	-3570	2002.209	-4202.5	2002.209	-4622.5	2002.209	-3857.5
2002.21	-4012.5	2002.21	-3507.5	2002.21	-4212.5	2002.21	-4587.5	2002.21	-3862.5
2002.211	-3952.5	2002.211	-3457.5	2002.211	-4220	2002.211	-4602.5	2002.211	-3880
2002.212	-4027.5	2002.212	-3537.5	2002.212	-4292.5	2002.212	-4650	2002.212	-3867.5
2002.213	-4045	2002.213	-3437.5	2002.213	-4297.5	2002.213	-4645	2002.213	-3840
2002.214	-4107.5	2002.214	-3532.5	2002.214	-4340	2002.214	-4712.5	2002.214	-3895
2002.215	-4252.5	2002.215	-3622.5	2002.215	-4367.5	2002.215	-4652.5	2002.215	-3997.5
2002.216	-4347.5	2002.216	-3787.5	2002.216	-4415	2002.216	-4747.5	2002.216	-4040
2002.217	-4435	2002.217	-3852.5	2002.217	-4472.5	2002.217	-4785	2002.217	-4157.5
2002.218	-4512.5	2002.218	-4037.5	2002.218	-4450	2002.218	-4797.5	2002.218	-4167.5
2002.219	-4570	2002.219	-4187.5	2002.219	-4447.5	2002.219	-4762.5	2002.219	-4245
2002.22	-4635	2002.22	-4292.5	2002.22	-4497.5	2002.22	-4837.5	2002.22	-4330
2002.221	-4680	2002.221	-4397.5	2002.221	-4455	2002.221	-4762.5	2002.221	-4335
2002.222	-4707.5	2002.222	-4452.5	2002.222	-4517.5	2002.222	-4790	2002.222	-4415
2002.223	-4665	2002.223	-4480	2002.223	-4472.5	2002.223	-4807.5	2002.223	-4435
2002.224	-4687.5	2002.224	-4430	2002.224	-4512.5	2002.224	-4785	2002.224	-4365
2002.225	-4697.5	2002.225	-4445	2002.225	-4485	2002.225	-4720	2002.225	-4400
2002.226	-4672.5	2002.226	-4380	2002.226	-4460	2002.226	-4702.5	2002.226	-4360
2002.227	-4640	2002.227	-4320	2002.227	-4467.5	2002.227	-4710	2002.227	-4292.5
2002.228	-4527.5	2002.228	-4182.5	2002.228	-4410	2002.228	-4670	2002.228	-4277.5
2002.229	-4520	2002.229	-4172.5	2002.229	-4407.5	2002.229	-4610	2002.229	-4267.5
2002.23	-4430	2002.23	-4062.5	2002.23	-4425	2002.23	-4642.5	2002.23	-4155
2002.231	-4452.5	2002.231	-4007.5	2002.231	-4382.5	2002.231	-4585	2002.231	-4125
2002.232	-4462.5	2002.232	-3960	2002.232	-4335	2002.232	-4530	2002.232	-4077.5
2002.233	-4415	2002.233	-3922.5	2002.233	-4315	2002.233	-4517.5	2002.233	-4032.5
2002.234	-4370	2002.234	-3855	2002.234	-4280	2002.234	-4510	2002.234	-3975
2002.235	-4552.5	2002.235	-3872.5	2002.235	-4310	2002.235	-4530	2002.235	-4067.5
2002.236	-4492.5	2002.236	-3990	2002.236	-4305	2002.236	-4520	2002.236	-4077.5
2002.237	-4505	2002.237	-4055	2002.237	-4330	2002.237	-4510	2002.237	-4090
2002.238	-4530	2002.238	-4145	2002.238	-4290	2002.238	-4512.5	2002.238	-4065
2002.239	-4580	2002.239	-4265	2002.239	-4272.5	2002.239	-4507.5	2002.239	-4097.5
2002.24	-4637.5	2002.24	-4292.5	2002.24	-4265	2002.24	-4462.5	2002.24	-4207.5
2002.241	-4700	2002.241	-4405	2002.241	-4300	2002.241	-4547.5	2002.241	-4167.5
2002.242	-4630	2002.242	-4337.5	2002.242	-4260	2002.242	-4425	2002.242	-4140
2002.243	-4695	2002.243	-4367.5	2002.243	-4167.5	2002.243	-4372.5	2002.243	-4177.5
2002.244	-4597.5	2002.244	-4445	2002.244	-4177.5	2002.244	-4357.5	2002.244	-4210
2002.245	-4517.5	2002.245	-4357.5	2002.245	-4117.5	2002.245	-4275	2002.245	-4052.5
2002.246	-4387.5	2002.246	-4217.5	2002.246	-4082.5	2002.246	-4267.5	2002.246	-4115
2002.247	-4377.5	2002.247	-4097.5	2002.247	-3982.5	2002.247	-4155	2002.247	-3970
2002.248	-4275	2002.248	-3930	2002.248	-4000	2002.248	-4145	2002.248	-3892.5
2002.249	-4195	2002.249	-3857.5	2002.249	-3977.5	2002.249	-4167.5	2002.249	-3852.5
2002.25	-4160	2002.25	-3797.5	2002.25	-3985	2002.25	-4162.5	2002.25	-3875
2002.251	-4157.5	2002.251	-3745	2002.251	-3977.5	2002.251	-4122.5	2002.251	-3802.5
2002.252	-4197.5	2002.252	-3672.5	2002.252	-3947.5	2002.252	-4090	2002.252	-3660
2002.253	-4130	2002.253	-3660	2002.253	-3895	2002.253	-3995	2002.253	-3750
2002.254	-4152.5	2002.254	-3667.5	2002.254	-3897.5	2002.254	-4037.5	2002.254	-3690
2002.255	-4092.5	2002.255	-3715	2002.255	-3910	2002.255	-4035	2002.255	-3747.5
2002.256	-4152.5	2002.256	-3727.5	2002.256	-3905	2002.256	-4017.5	2002.256	-3730
2002.257	-4157.5	2002.257	-3830	2002.257	-3910	2002.257	-4092.5	2002.257	-3777.5
2002.258	-4330	2002.258	-3945	2002.258	-3952.5	2002.258	-4065	2002.258	-3875
2002.259	-4340	2002.259	-4067.5	2002.259	-3875	2002.259	-4027.5	2002.259	-3815
2002.26	-4277.5	2002.26	-4055	2002.26	-3830	2002.26	-4040	2002.26	-3885
2002.261	-4380	2002.261	-4072.5	2002.261	-3840	2002.261	-3990	2002.261	-3777.5
2002.262	-4320	2002.262	-4142.5	2002.262	-3820	2002.262	-3972.5	2002.262	-3845
2002.263	-4345	2002.263	-4187.5	2002.263	-3842.5	2002.263	-4007.5	2002.263	-3872.5
2002.264	-4387.5	2002.264	-4200	2002.264	-3850	2002.264	-3995	2002.264	-3967.5
2002.265	-4212.5	2002.265	-4110	2002.265	-3787.5	2002.265	-3915	2002.265	-3810
2002.266	-4150	2002.266	-4085	2002.266	-3750	2002.266	-3885	2002.266	-3782.5
2002.267	-4100	2002.267	-3905	2002.267	-3727.5	2002.267	-3837.5	2002.267	-3792.5
2002.268	-4090	2002.268	-3827.5	2002.268	-3712.5	2002.268	-3805	2002.268	-3710
2002.269	-3992.5	2002.269	-3720	2002.269	-3697.5	2002.269	-3795	2002.269	-3592.5
2002.27	-3982.5	2002.27	-3637.5	2002.27	-3657.5	2002.27	-3812.5	2002.27	-3545
2002.271	-3887.5	2002.271	-3587.5	2002.271	-3660	2002.271	-3727.5	2002.271	-3492.5
2002.272	-3945	2002.272	-3475	2002.272	-3595	2002.272	-3707.5	2002.272	-3482.5
2002.273	-3930	2002.273	-3412.5	2002.273	-3550	2002.273	-3615	2002.273	-3402.5
