F4(X)	F4(Y)	F5(X)	F5(Y)	G3(X)	G3(Y)	G2(X)	G2(Y)
2000.746	-3640	2000.746	-3560	2000.746	-3277.5	2000.746	-3672.5
2000.747	-3565	2000.747	-3445	2000.747	-3145	2000.747	-3540
2000.748	-3410	2000.748	-3342.5	2000.748	-3045	2000.748	-3347.5
2000.749	-3305	2000.749	-3262.5	2000.749	-2830	2000.749	-3157.5
2000.75	-3265	2000.75	-3200	2000.75	-2787.5	2000.75	-3040
2000.751	-3115	2000.751	-3102.5	2000.751	-2615	2000.751	-2780
2000.752	-3040	2000.752	-3002.5	2000.752	-2550	2000.752	-2680
2000.753	-2935	2000.753	-2905	2000.753	-2382.5	2000.753	-2537.5
2000.754	-2885	2000.754	-2752.5	2000.754	-2327.5	2000.754	-2427.5
2000.755	-2820	2000.755	-2772.5	2000.755	-2305	2000.755	-2435
2000.756	-2752.5	2000.756	-2705	2000.756	-2307.5	2000.756	-2402.5
2000.757	-2717.5	2000.757	-2680	2000.757	-2225	2000.757	-2367.5
2000.758	-2637.5	2000.758	-2705	2000.758	-2240	2000.758	-2352.5
2000.759	-2602.5	2000.759	-2670	2000.759	-2172.5	2000.759	-2390
2000.76	-2520	2000.76	-2715	2000.76	-2175	2000.76	-2365
2000.761	-2425	2000.761	-2620	2000.761	-2160	2000.761	-2395
2000.762	-2382.5	2000.762	-2607.5	2000.762	-2015	2000.762	-2375
2000.763	-2317.5	2000.763	-2672.5	2000.763	-2027.5	2000.763	-2330
2000.764	-2325	2000.764	-2535	2000.764	-1945	2000.764	-2340
2000.765	-2252.5	2000.765	-2515	2000.765	-1895	2000.765	-2325
2000.766	-2200	2000.766	-2480	2000.766	-1910	2000.766	-2155
2000.767	-2187.5	2000.767	-2422.5	2000.767	-1882.5	2000.767	-2090
2000.768	-2137.5	2000.768	-2370	2000.768	-1747.5	2000.768	-1950
2000.769	-2092.5	2000.769	-2317.5	2000.769	-1755	2000.769	-1822.5
2000.77	-2072.5	2000.77	-2207.5	2000.77	-1542.5	2000.77	-1660
2000.771	-2055	2000.771	-2237.5	2000.771	-1572.5	2000.771	-1572.5
2000.772	-2025	2000.772	-2230	2000.772	-1582.5	2000.772	-1617.5
2000.773	-2055	2000.773	-2162.5	2000.773	-1470	2000.773	-1527.5
2000.774	-2107.5	2000.774	-2190	2000.774	-1537.5	2000.774	-1592.5
2000.775	-2392.5	2000.775	-2537.5	2000.775	-1840	2000.775	-1877.5
2000.776	-3287.5	2000.776	-3462.5	2000.776	-2725	2000.776	-2697.5
2000.777	-3847.5	2000.777	-4355	2000.777	-3157.5	2000.777	-2940
2000.778	-3032.5	2000.778	-4070	2000.778	-2282.5	2000.778	-1715
2000.779	-1622.5	2000.779	-4215	2000.779	-200	2000.779	417.5
2000.78	2752.5	2000.78	-2227.5	2000.78	4790	2000.78	4670
2000.781	10990	2000.781	3592.5	2000.781	13982.5	2000.781	12535
2000.782	22665	2000.782	14322.5	2000.782	25467.5	2000.782	22422.5
2000.783	33965	2000.783	27917.5	2000.783	35422.5	2000.783	30005
2000.784	42190	2000.784	41145	2000.784	43032.5	2000.784	35495
2000.785	45162.5	2000.785	53840	2000.785	50377.5	2000.785	42520
2000.786	37765	2000.786	57037.5	2000.786	49260	2000.786	49812.5
2000.787	41455	2000.787	54160	2000.787	41067.5	2000.787	53015
2000.788	53647.5	2000.788	-687.5	2000.788	22927.5	2000.788	30927.5
2000.789	-14442.5	2000.789	-15062.5	2000.789	-17712.5	2000.789	-13640
2000.79	-4427.5	2000.79	-9142.5	2000.79	-5372.5	2000.79	-4670
2000.791	945	2000.791	-5307.5	2000.791	-1560	2000.791	945
2000.792	5362.5	2000.792	-1415	2000.792	2360	2000.792	5792.5
2000.793	8770	2000.793	1805	2000.793	6072.5	2000.793	9867.5
2000.794	10567.5	2000.794	3217.5	2000.794	8242.5	2000.794	12692.5
2000.795	11262.5	2000.795	3577.5	2000.795	9362.5	2000.795	14492.5
2000.796	12735	2000.796	4580	2000.796	11015	2000.796	17062.5
2000.797	14260	2000.797	5665	2000.797	12780	2000.797	19575
2000.798	15770	2000.798	6872.5	2000.798	14307.5	2000.798	21962.5
2000.799	17417.5	2000.799	8337.5	2000.799	15892.5	2000.799	24082.5
2000.8	18807.5	2000.8	9770	2000.8	17082.5	2000.8	25490
2000.801	20072.5	2000.801	11567.5	2000.801	18027.5	2000.801	26332.5
2000.802	21142.5	2000.802	13552.5	2000.802	18762.5	2000.802	26707.5
2000.803	21875	2000.803	15397.5	2000.803	19345	2000.803	26662.5
2000.804	22270	2000.804	17022.5	2000.804	19702.5	2000.804	26307.5
2000.805	22415	2000.805	18302.5	2000.805	19970	2000.805	25800
2000.806	22290	2000.806	19215	2000.806	20062.5	2000.806	25155
2000.807	22037.5	2000.807	19597.5	2000.807	19955	2000.807	24392.5
2000.808	21542.5	2000.808	19667.5	2000.808	19767.5	2000.808	23660
2000.809	20997.5	2000.809	19480	2000.809	19512.5	2000.809	22915
2000.81	20332.5	2000.81	19060	2000.81	19055	2000.81	22017.5
2000.811	19565	2000.811	18507.5	2000.811	18537.5	2000.811	21172.5
2000.812	18775	2000.812	17945	2000.812	18020	2000.812	20280
2000.813	17980	2000.813	17237.5	2000.813	17400	2000.813	19432.5
2000.814	17195	2000.814	16560	2000.814	16805	2000.814	18630
2000.815	16357.5	2000.815	15810	2000.815	16127.5	2000.815	17715
2000.816	15580	2000.816	15007.5	2000.816	15410	2000.816	16787.5
2000.817	14855	2000.817	14192.5	2000.817	14725	2000.817	15935
2000.818	14070	2000.818	13510	2000.818	14085	2000.818	15040
2000.819	13382.5	2000.819	12787.5	2000.819	13377.5	2000.819	14252.5
2000.82	12665	2000.82	12137.5	2000.82	12727.5	2000.82	13542.5
2000.821	12002.5	2000.821	11475	2000.821	12250	2000.821	12790
2000.822	11362.5	2000.822	10735	2000.822	11587.5	2000.822	12032.5
2000.823	10772.5	2000.823	10225	2000.823	11137.5	2000.823	11422.5
2000.824	10212.5	2000.824	9632.5	2000.824	10570	2000.824	10800
2000.825	9637.5	2000.825	9050	2000.825	10095	2000.825	10237.5
2000.826	9145	2000.826	8500	2000.826	9657.5	2000.826	9727.5
2000.827	8647.5	2000.827	7985	2000.827	9287.5	2000.827	9407.5
2000.828	8200	2000.828	7427.5	2000.828	9012.5	2000.828	9057.5
2000.829	7757.5	2000.829	6990	2000.829	8690	2000.829	8645
2000.83	7320	2000.83	6605	2000.83	8230	2000.83	8282.5
2000.831	6937.5	2000.831	6112.5	2000.831	8045	2000.831	7932.5
2000.832	6560	2000.832	5672.5	2000.832	7682.5	2000.832	7645
2000.833	6175	2000.833	5302.5	2000.833	7322.5	2000.833	7297.5
2000.834	5845	2000.834	4972.5	2000.834	7120	2000.834	7087.5
2000.835	5512.5	2000.835	4630	2000.835	6747.5	2000.835	6637.5
2000.836	5160	2000.836	4280	2000.836	6477.5	2000.836	6250
2000.837	4865	2000.837	3922.5	2000.837	6250	2000.837	5910
2000.838	4547.5	2000.838	3615	2000.838	5937.5	2000.838	5497.5
2000.839	4325	2000.839	3262.5	2000.839	5687.5	2000.839	5172.5
2000.84	4080	2000.84	2927.5	2000.84	5407.5	2000.84	4792.5
2000.841	3830	2000.841	2647.5	2000.841	5190	2000.841	4472.5
2000.842	3620	2000.842	2440	2000.842	4880	2000.842	4235
2000.843	3372.5	2000.843	2080	2000.843	4660	2000.843	3985
2000.844	3160	2000.844	1885	2000.844	4515	2000.844	3705
2000.845	2885	2000.845	1635	2000.845	4335	2000.845	3517.5
2000.846	2667.5	2000.846	1460	2000.846	4085	2000.846	3355
2000.847	2547.5	2000.847	1327.5	2000.847	4012.5	2000.847	3310
2000.848	2360	2000.848	1090	2000.848	3997.5	2000.848	3170
2000.849	2152.5	2000.849	927.5	2000.849	3902.5	2000.849	3135
2000.85	1952.5	2000.85	702.5	2000.85	3687.5	2000.85	3010
2000.851	1752.5	2000.851	492.5	2000.851	3532.5	2000.851	2880
2000.852	1580	2000.852	417.5	2000.852	3435	2000.852	2787.5
2000.853	1350	2000.853	115	2000.853	3260	2000.853	2605
2000.854	1135	2000.854	37.5	2000.854	3052.5	2000.854	2362.5
2000.855	915	2000.855	-150	2000.855	2802.5	2000.855	2107.5
2000.856	752.5	2000.856	-342.5	2000.856	2557.5	2000.856	1882.5
2000.857	535	2000.857	-385	2000.857	2402.5	2000.857	1662.5
2000.858	322.5	2000.858	-695	2000.858	2130	2000.858	1325
2000.859	92.5	2000.859	-835	2000.859	1850	2000.859	997.5
2000.86	-150	2000.86	-942.5	2000.86	1582.5	2000.86	737.5
2000.861	-387.5	2000.861	-1115	2000.861	1395	2000.861	432.5
2000.862	-590	2000.862	-1260	2000.862	1245	2000.862	162.5
2000.863	-785	2000.863	-1407.5	2000.863	945	2000.863	-70
2000.864	-1015	2000.864	-1545	2000.864	755	2000.864	-302.5
2000.865	-1205	2000.865	-1697.5	2000.865	522.5	2000.865	-515
2000.866	-1402.5	2000.866	-1750	2000.866	307.5	2000.866	-645
2000.867	-1582.5	2000.867	-1845	2000.867	195	2000.867	-762.5
2000.868	-1720	2000.868	-2020	2000.868	70	2000.868	-875
2000.869	-1917.5	2000.869	-2157.5	2000.869	-27.5	2000.869	-920
2000.87	-2060	2000.87	-2252.5	2000.87	-192.5	2000.87	-1015
2000.871	-2250	2000.871	-2340	2000.871	-387.5	2000.871	-1087.5
2000.872	-2385	2000.872	-2462.5	2000.872	-510	2000.872	-1235
2000.873	-2575	2000.873	-2620	2000.873	-672.5	2000.873	-1380
2000.874	-2747.5	2000.874	-2775	2000.874	-800	2000.874	-1482.5
2000.875	-2890	2000.875	-2812.5	2000.875	-1055	2000.875	-1685
2000.876	-3020	2000.876	-2927.5	2000.876	-1252.5	2000.876	-1907.5
2000.877	-3157.5	2000.877	-3082.5	2000.877	-1487.5	2000.877	-2117.5
2000.878	-3310	2000.878	-3157.5	2000.878	-1700	2000.878	-2357.5
2000.879	-3475	2000.879	-3155	2000.879	-1915	2000.879	-2595
2000.88	-3522.5	2000.88	-3160	2000.88	-1987.5	2000.88	-2757.5
2000.881	-3665	2000.881	-3325	2000.881	-2212.5	2000.881	-3027.5
2000.882	-3772.5	2000.882	-3322.5	2000.882	-2347.5	2000.882	-3247.5
2000.883	-3897.5	2000.883	-3450	2000.883	-2557.5	2000.883	-3367.5
2000.884	-3987.5	2000.884	-3487.5	2000.884	-2652.5	2000.884	-3532.5
2000.885	-4080	2000.885	-3505	2000.885	-2765	2000.885	-3665
2000.886	-4147.5	2000.886	-3572.5	2000.886	-2840	2000.886	-3667.5
2000.887	-4245	2000.887	-3567.5	2000.887	-2930	2000.887	-3672.5
2000.888	-4290	2000.888	-3682.5	2000.888	-2937.5	2000.888	-3662.5
2000.889	-4335	2000.889	-3810	2000.889	-3037.5	2000.889	-3667.5
2000.89	-4407.5	2000.89	-3862.5	2000.89	-3055	2000.89	-3655
2000.891	-4385	2000.891	-3900	2000.891	-3055	2000.891	-3647.5
2000.892	-4470	2000.892	-3972.5	2000.892	-3155	2000.892	-3642.5
2000.893	-4500	2000.893	-3940	2000.893	-3242.5	2000.893	-3707.5
2000.894	-4597.5	2000.894	-4082.5	2000.894	-3280	2000.894	-3700
2000.895	-4635	2000.895	-4060	2000.895	-3290	2000.895	-3735
2000.896	-4690	2000.896	-4122.5	2000.896	-3425	2000.896	-3907.5
2000.897	-4700	2000.897	-4195	2000.897	-3487.5	2000.897	-3982.5
2000.898	-4757.5	2000.898	-4200	2000.898	-3667.5	2000.898	-4122.5
2000.899	-4815	2000.899	-4280	2000.899	-3720	2000.899	-4250
2000.9	-4792.5	2000.9	-4257.5	2000.9	-3762.5	2000.9	-4350
2000.901	-4842.5	2000.901	-4252.5	2000.901	-3892.5	2000.901	-4532.5
2000.902	-4817.5	2000.902	-4177.5	2000.902	-3892.5	2000.902	-4575
2000.903	-4862.5	2000.903	-4180	2000.903	-4005	2000.903	-4595
2000.904	-4890	2000.904	-4170	2000.904	-4075	2000.904	-4705
2000.905	-4867.5	2000.905	-4235	2000.905	-4005	2000.905	-4710
2000.906	-4912.5	2000.906	-4250	2000.906	-4077.5	2000.906	-4642.5
2000.907	-4865	2000.907	-4192.5	2000.907	-4012.5	2000.907	-4545
2000.908	-4877.5	2000.908	-4247.5	2000.908	-4007.5	2000.908	-4445
2000.909	-4820	2000.909	-4297.5	2000.909	-3910	2000.909	-4320
2000.91	-4790	2000.91	-4322.5	2000.91	-3827.5	2000.91	-4305
2000.911	-4822.5	2000.911	-4322.5	2000.911	-3842.5	2000.911	-4175
2000.912	-4782.5	2000.912	-4407.5	2000.912	-3847.5	2000.912	-4152.5
2000.913	-4775	2000.913	-4290	2000.913	-3825	2000.913	-4127.5
2000.914	-4745	2000.914	-4370	2000.914	-3780	2000.914	-4075
2000.915	-4760	2000.915	-4317.5	2000.915	-3882.5	2000.915	-4062.5
2000.916	-4742.5	2000.916	-4277.5	2000.916	-3870	2000.916	-4107.5
2000.917	-4752.5	2000.917	-4197.5	2000.917	-3892.5	2000.917	-4177.5
2000.918	-4765	2000.918	-4210	2000.918	-4010	2000.918	-4302.5
2000.919	-4712.5	2000.919	-4190	2000.919	-4010	2000.919	-4305
2000.92	-4712.5	2000.92	-4250	2000.92	-4017.5	2000.92	-4447.5
2000.921	-4745	2000.921	-4232.5	2000.921	-4180	2000.921	-4565
2000.922	-4717.5	2000.922	-4217.5	2000.922	-4125	2000.922	-4617.5
2000.923	-4695	2000.923	-4222.5	2000.923	-4185	2000.923	-4645
2000.924	-4702.5	2000.924	-4177.5	2000.924	-4215	2000.924	-4695
2000.925	-4692.5	2000.925	-4150	2000.925	-4170	2000.925	-4657.5
2000.926	-4687.5	2000.926	-4132.5	2000.926	-4082.5	2000.926	-4577.5
2000.927	-4637.5	2000.927	-4212.5	2000.927	-4047.5	2000.927	-4490
2000.928	-4630	2000.928	-4187.5	2000.928	-3962.5	2000.928	-4362.5
2000.929	-4577.5	2000.929	-4220	2000.929	-3887.5	2000.929	-4280
2000.93	-4547.5	2000.93	-4247.5	2000.93	-3930	2000.93	-4235
2000.931	-4517.5	2000.931	-4155	2000.931	-3845	2000.931	-4107.5
2000.932	-4527.5	2000.932	-4190	2000.932	-3817.5	2000.932	-4065
2000.933	-4497.5	2000.933	-4100	2000.933	-3737.5	2000.933	-4007.5
2000.934	-4442.5	2000.934	-4065	2000.934	-3765	2000.934	-3927.5
2000.935	-4440	2000.935	-4097.5	2000.935	-3830	2000.935	-3987.5
2000.936	-4457.5	2000.936	-4107.5	2000.936	-3885	2000.936	-4212.5
2000.937	-4467.5	2000.937	-4115	2000.937	-3942.5	2000.937	-4172.5
2000.938	-4497.5	2000.938	-4110	2000.938	-3980	2000.938	-4300
2000.939	-4465	2000.939	-4082.5	2000.939	-3945	2000.939	-4352.5
2000.94	-4460	2000.94	-4112.5	2000.94	-4050	2000.94	-4435
2000.941	-4452.5	2000.941	-4185	2000.941	-4132.5	2000.941	-4500
2000.942	-4452.5	2000.942	-4152.5	2000.942	-4150	2000.942	-4635
2000.943	-4437.5	2000.943	-4047.5	2000.943	-4055	2000.943	-4567.5
2000.944	-4397.5	2000.944	-4102.5	2000.944	-4135	2000.944	-4582.5
2000.945	-4352.5	2000.945	-4065	2000.945	-4065	2000.945	-4560
2000.946	-4345	2000.946	-4012.5	2000.946	-3952.5	2000.946	-4427.5
2000.947	-4285	2000.947	-3995	2000.947	-3965	2000.947	-4362.5
2000.948	-4267.5	2000.948	-3990	2000.948	-3917.5	2000.948	-4277.5
2000.949	-4222.5	2000.949	-3987.5	2000.949	-3760	2000.949	-4090
2000.95	-4142.5	2000.95	-3957.5	2000.95	-3690	2000.95	-4032.5
2000.951	-4127.5	2000.951	-3860	2000.951	-3685	2000.951	-3920
2000.952	-4150	2000.952	-3895	2000.952	-3627.5	2000.952	-3815
2000.953	-4082.5	2000.953	-3857.5	2000.953	-3562.5	2000.953	-3857.5
2000.954	-4120	2000.954	-3785	2000.954	-3685	2000.954	-3875
2000.955	-4035	2000.955	-3720	2000.955	-3540	2000.955	-3822.5
2000.956	-4040	2000.956	-3777.5	2000.956	-3635	2000.956	-3877.5
2000.957	-4017.5	2000.957	-3795	2000.957	-3755	2000.957	-3937.5
2000.958	-4022.5	2000.958	-3822.5	2000.958	-3715	2000.958	-4020
2000.959	-3997.5	2000.959	-3840	2000.959	-3752.5	2000.959	-4097.5
2000.96	-3967.5	2000.96	-3905	2000.96	-3792.5	2000.96	-4167.5
2000.961	-3980	2000.961	-3917.5	2000.961	-3780	2000.961	-4212.5
2000.962	-3940	2000.962	-3887.5	2000.962	-3777.5	2000.962	-4250
2000.963	-3910	2000.963	-3860	2000.963	-3817.5	2000.963	-4232.5
2000.964	-3837.5	2000.964	-3815	2000.964	-3752.5	2000.964	-4230
2000.965	-3845	2000.965	-3790	2000.965	-3710	2000.965	-4185
2000.966	-3802.5	2000.966	-3755	2000.966	-3567.5	2000.966	-4085
2000.967	-3760	2000.967	-3832.5	2000.967	-3587.5	2000.967	-4032.5
2000.968	-3717.5	2000.968	-3717.5	2000.968	-3560	2000.968	-3987.5
2000.969	-3725	2000.969	-3702.5	2000.969	-3530	2000.969	-3842.5
2000.97	-3717.5	2000.97	-3595	2000.97	-3525	2000.97	-3775
2000.971	-3652.5	2000.971	-3500	2000.971	-3490	2000.971	-3690
2000.972	-3695	2000.972	-3417.5	2000.972	-3452.5	2000.972	-3640
2000.973	-3602.5	2000.973	-3427.5	2000.973	-3462.5	2000.973	-3565
2000.974	-3607.5	2000.974	-3382.5	2000.974	-3505	2000.974	-3550
2000.975	-3582.5	2000.975	-3380	2000.975	-3430	2000.975	-3502.5
2000.976	-3560	2000.976	-3505	2000.976	-3455	2000.976	-3622.5
2000.977	-3542.5	2000.977	-3430	2000.977	-3465	2000.977	-3677.5
2000.978	-3550	2000.978	-3482.5	2000.978	-3522.5	2000.978	-3757.5
2000.979	-3525	2000.979	-3450	2000.979	-3550	2000.979	-3860
2000.98	-3512.5	2000.98	-3522.5	2000.98	-3557.5	2000.98	-3960
2000.981	-3450	2000.981	-3560	2000.981	-3535	2000.981	-3925
2000.982	-3427.5	2000.982	-3460	2000.982	-3590	2000.982	-4002.5
2000.983	-3437.5	2000.983	-3467.5	2000.983	-3590	2000.983	-4030
2000.984	-3422.5	2000.984	-3475	2000.984	-3592.5	2000.984	-4082.5
2000.985	-3387.5	2000.985	-3517.5	2000.985	-3520	2000.985	-4117.5
2000.986	-3395	2000.986	-3417.5	2000.986	-3495	2000.986	-4080
2000.987	-3375	2000.987	-3395	2000.987	-3425	2000.987	-3972.5
2000.988	-3325	2000.988	-3442.5	2000.988	-3465	2000.988	-3845
2000.989	-3337.5	2000.989	-3342.5	2000.989	-3317.5	2000.989	-3785
2000.99	-3305	2000.99	-3312.5	2000.99	-3297.5	2000.99	-3670
2000.991	-3250	2000.991	-3232.5	2000.991	-3262.5	2000.991	-3665
2000.992	-3242.5	2000.992	-3220	2000.992	-3305	2000.992	-3557.5
2000.993	-3242.5	2000.993	-3140	2000.993	-3227.5	2000.993	-3535
2000.994	-3225	2000.994	-3137.5	2000.994	-3252.5	2000.994	-3540
2000.995	-3167.5	2000.995	-3190	2000.995	-3152.5	2000.995	-3507.5
2000.996	-3220	2000.996	-3227.5	2000.996	-3302.5	2000.996	-3597.5
2000.997	-3167.5	2000.997	-3255	2000.997	-3290	2000.997	-3657.5
2000.998	-3180	2000.998	-3350	2000.998	-3305	2000.998	-3780
2000.999	-3182.5	2000.999	-3362.5	2000.999	-3427.5	2000.999	-3882.5
2001	-3212.5	2001	-3442.5	2001	-3482.5	2001	-3967.5
2001.001	-3192.5	2001.001	-3377.5	2001.001	-3530	2001.001	-4120
2001.002	-3212.5	2001.002	-3390	2001.002	-3540	2001.002	-4155
2001.003	-3180	2001.003	-3402.5	2001.003	-3535	2001.003	-4175
2001.004	-3155	2001.004	-3362.5	2001.004	-3522.5	2001.004	-4240
2001.005	-3140	2001.005	-3355	2001.005	-3405	2001.005	-4245
2001.006	-3155	2001.006	-3340	2001.006	-3352.5	2001.006	-4162.5
2001.007	-3102.5	2001.007	-3240	2001.007	-3325	2001.007	-4060
2001.008	-3040	2001.008	-3260	2001.008	-3222.5	2001.008	-3955
2001.009	-3017.5	2001.009	-3200	2001.009	-3162.5	2001.009	-3887.5
2001.01	-3032.5	2001.01	-3210	2001.01	-3210	2001.01	-3795
2001.011	-2977.5	2001.011	-3300	2001.011	-3067.5	2001.011	-3677.5
2001.012	-2987.5	2001.012	-3202.5	2001.012	-3030	2001.012	-3667.5
2001.013	-2955	2001.013	-3155	2001.013	-3062.5	2001.013	-3647.5
2001.014	-2930	2001.014	-3165	2001.014	-3050	2001.014	-3675
2001.015	-2940	2001.015	-3162.5	2001.015	-3042.5	2001.015	-3627.5
2001.016	-2877.5	2001.016	-3227.5	2001.016	-2980	2001.016	-3642.5
2001.017	-2905	2001.017	-3205	2001.017	-3047.5	2001.017	-3765
2001.018	-2910	2001.018	-3275	2001.018	-2945	2001.018	-3877.5
2001.019	-2935	2001.019	-3255	2001.019	-3035	2001.019	-3965
2001.02	-2902.5	2001.02	-3302.5	2001.02	-3107.5	2001.02	-4000
2001.021	-2887.5	2001.021	-3337.5	2001.021	-3152.5	2001.021	-4047.5
2001.022	-2850	2001.022	-3327.5	2001.022	-3110	2001.022	-4075
2001.023	-2895	2001.023	-3310	2001.023	-3095	2001.023	-4172.5
2001.024	-2850	2001.024	-3380	2001.024	-3102.5	2001.024	-4200
2001.025	-2867.5	2001.025	-3307.5	2001.025	-3115	2001.025	-4162.5
2001.026	-2827.5	2001.026	-3240	2001.026	-3055	2001.026	-4125
2001.027	-2820	2001.027	-3240	2001.027	-3015	2001.027	-4087.5
2001.028	-2772.5	2001.028	-3240	2001.028	-2982.5	2001.028	-3987.5
2001.029	-2742.5	2001.029	-3182.5	2001.029	-2900	2001.029	-3917.5
2001.03	-2745	2001.03	-3215	2001.03	-2895	2001.03	-3840
2001.031	-2680	2001.031	-3272.5	2001.031	-2777.5	2001.031	-3710
2001.032	-2662.5	2001.032	-3225	2001.032	-2717.5	2001.032	-3692.5
2001.033	-2587.5	2001.033	-3250	2001.033	-2727.5	2001.033	-3597.5
2001.034	-2535	2001.034	-3207.5	2001.034	-2662.5	2001.034	-3520
2001.035	-2507.5	2001.035	-3207.5	2001.035	-2635	2001.035	-3457.5
2001.036	-2490	2001.036	-3225	2001.036	-2695	2001.036	-3532.5
2001.037	-2500	2001.037	-3290	2001.037	-2685	2001.037	-3640
2001.038	-2525	2001.038	-3327.5	2001.038	-2772.5	2001.038	-3815
2001.039	-2510	2001.039	-3312.5	2001.039	-2870	2001.039	-3890
2001.04	-2550	2001.04	-3315	2001.04	-2922.5	2001.04	-3960
2001.041	-2517.5	2001.041	-3322.5	2001.041	-2930	2001.041	-4027.5
2001.042	-2497.5	2001.042	-3312.5	2001.042	-2997.5	2001.042	-4132.5
2001.043	-2467.5	2001.043	-3192.5	2001.043	-2940	2001.043	-4142.5
2001.044	-2437.5	2001.044	-3232.5	2001.044	-2885	2001.044	-4162.5
2001.045	-2477.5	2001.045	-3155	2001.045	-2940	2001.045	-4080
2001.046	-2385	2001.046	-3125	2001.046	-2822.5	2001.046	-4010
2001.047	-2355	2001.047	-3112.5	2001.047	-2857.5	2001.047	-3907.5
2001.048	-2340	2001.048	-3095	2001.048	-2775	2001.048	-3815
2001.049	-2337.5	2001.049	-3110	2001.049	-2732.5	2001.049	-3700
2001.05	-2280	2001.05	-3112.5	2001.05	-2545	2001.05	-3610
2001.051	-2245	2001.051	-3080	2001.051	-2532.5	2001.051	-3430
2001.052	-2252.5	2001.052	-3107.5	2001.052	-2552.5	2001.052	-3410
2001.053	-2217.5	2001.053	-3102.5	2001.053	-2465	2001.053	-3335
2001.054	-2192.5	2001.054	-3035	2001.054	-2417.5	2001.054	-3357.5
2001.055	-2205	2001.055	-3077.5	2001.055	-2457.5	2001.055	-3360
2001.056	-2177.5	2001.056	-3017.5	2001.056	-2600	2001.056	-3382.5
2001.057	-2195	2001.057	-3087.5	2001.057	-2530	2001.057	-3482.5
2001.058	-2207.5	2001.058	-3075	2001.058	-2567.5	2001.058	-3540
2001.059	-2230	2001.059	-3045	2001.059	-2625	2001.059	-3685
2001.06	-2212.5	2001.06	-3040	2001.06	-2672.5	2001.06	-3715
2001.061	-2207.5	2001.061	-3017.5	2001.061	-2672.5	2001.061	-3850
2001.062	-2187.5	2001.062	-2972.5	2001.062	-2740	2001.062	-3910
2001.063	-2155	2001.063	-2970	2001.063	-2665	2001.063	-3885
2001.064	-2160	2001.064	-2940	2001.064	-2680	2001.064	-3857.5
2001.065	-2132.5	2001.065	-2925	2001.065	-2635	2001.065	-3782.5
2001.066	-2080	2001.066	-2860	2001.066	-2487.5	2001.066	-3622.5
2001.067	-2070	2001.067	-2890	2001.067	-2560	2001.067	-3560
2001.068	-2015	2001.068	-2865	2001.068	-2382.5	2001.068	-3420
2001.069	-2020	2001.069	-2847.5	2001.069	-2337.5	2001.069	-3295
2001.07	-1990	2001.07	-2800	2001.07	-2337.5	2001.07	-3215
2001.071	-1995	2001.071	-2897.5	2001.071	-2292.5	2001.071	-3065
2001.072	-1980	2001.072	-2830	2001.072	-2275	2001.072	-3007.5
2001.073	-1950	2001.073	-2850	2001.073	-2242.5	2001.073	-2995
2001.074	-1972.5	2001.074	-2835	2001.074	-2252.5	2001.074	-2982.5
2001.075	-1917.5	2001.075	-2717.5	2001.075	-2207.5	2001.075	-2927.5
2001.076	-1942.5	2001.076	-2725	2001.076	-2225	2001.076	-3042.5
2001.077	-1892.5	2001.077	-2647.5	2001.077	-2157.5	2001.077	-3015
2001.078	-1925	2001.078	-2720	2001.078	-2260	2001.078	-3122.5
2001.079	-1905	2001.079	-2710	2001.079	-2400	2001.079	-3185
2001.08	-1950	2001.08	-2712.5	2001.08	-2367.5	2001.08	-3252.5
2001.081	-1965	2001.081	-2580	2001.081	-2520	2001.081	-3377.5
2001.082	-1935	2001.082	-2595	2001.082	-2452.5	2001.082	-3382.5
2001.083	-1975	2001.083	-2567.5	2001.083	-2485	2001.083	-3350
2001.084	-1920	2001.084	-2502.5	2001.084	-2462.5	2001.084	-3357.5
2001.085	-1892.5	2001.085	-2482.5	2001.085	-2417.5	2001.085	-3340
2001.086	-1917.5	2001.086	-2432.5	2001.086	-2337.5	2001.086	-3220
2001.087	-1862.5	2001.087	-2470	2001.087	-2217.5	2001.087	-3155
2001.088	-1812.5	2001.088	-2462.5	2001.088	-2162.5	2001.088	-3050
2001.089	-1715	2001.089	-2382.5	2001.089	-2050	2001.089	-2870
2001.09	-1727.5	2001.09	-2437.5	2001.09	-2055	2001.09	-2735
2001.091	-1725	2001.091	-2457.5	2001.091	-1960	2001.091	-2700
2001.092	-1742.5	2001.092	-2390	2001.092	-1902.5	2001.092	-2675
2001.093	-1742.5	2001.093	-2350	2001.093	-1935	2001.093	-2592.5
2001.094	-1735	2001.094	-2330	2001.094	-1950	2001.094	-2557.5
2001.095	-1737.5	2001.095	-2375	2001.095	-2045	2001.095	-2600
2001.096	-1762.5	2001.096	-2370	2001.096	-2037.5	2001.096	-2632.5
2001.097	-1740	2001.097	-2400	2001.097	-2032.5	2001.097	-2665
2001.098	-1757.5	2001.098	-2370	2001.098	-2030	2001.098	-2707.5
2001.099	-1715	2001.099	-2377.5	2001.099	-2027.5	2001.099	-2780
2001.1	-1720	2001.1	-2307.5	2001.1	-2147.5	2001.1	-2835
2001.101	-1710	2001.101	-2267.5	2001.101	-2142.5	2001.101	-2947.5
2001.102	-1700	2001.102	-2280	2001.102	-2217.5	2001.102	-2932.5
2001.103	-1747.5	2001.103	-2170	2001.103	-2170	2001.103	-2937.5
2001.104	-1705	2001.104	-2200	2001.104	-2137.5	2001.104	-2985
2001.105	-1645	2001.105	-2212.5	2001.105	-2092.5	2001.105	-2895
2001.106	-1570	2001.106	-2187.5	2001.106	-2085	2001.106	-2857.5
2001.107	-1572.5	2001.107	-2152.5	2001.107	-2030	2001.107	-2697.5
2001.108	-1550	2001.108	-2197.5	2001.108	-1847.5	2001.108	-2595
2001.109	-1532.5	2001.109	-2130	2001.109	-1800	2001.109	-2475
2001.11	-1475	2001.11	-2105	2001.11	-1717.5	2001.11	-2337.5
2001.111	-1450	2001.111	-2010	2001.111	-1667.5	2001.111	-2215
2001.112	-1435	2001.112	-1940	2001.112	-1622.5	2001.112	-2167.5
2001.113	-1440	2001.113	-1855	2001.113	-1637.5	2001.113	-2090
2001.114	-1477.5	2001.114	-1847.5	2001.114	-1640	2001.114	-2130
2001.115	-1452.5	2001.115	-1872.5	2001.115	-1675	2001.115	-2075
2001.116	-1490	2001.116	-1845	2001.116	-1665	2001.116	-2130
2001.117	-1530	2001.117	-1945	2001.117	-1792.5	2001.117	-2170
2001.118	-1542.5	2001.118	-1932.5	2001.118	-1812.5	2001.118	-2357.5
2001.119	-1512.5	2001.119	-1922.5	2001.119	-1827.5	2001.119	-2375
2001.12	-1527.5	2001.12	-1957.5	2001.12	-1865	2001.12	-2430
2001.121	-1537.5	2001.121	-1960	2001.121	-1930	2001.121	-2505
2001.122	-1540	2001.122	-1920	2001.122	-2007.5	2001.122	-2582.5
2001.123	-1525	2001.123	-1912.5	2001.123	-1890	2001.123	-2597.5
2001.124	-1510	2001.124	-1840	2001.124	-1982.5	2001.124	-2535
2001.125	-1550	2001.125	-1780	2001.125	-1917.5	2001.125	-2577.5
2001.126	-1497.5	2001.126	-1762.5	2001.126	-1767.5	2001.126	-2477.5
2001.127	-1465	2001.127	-1740	2001.127	-1775	2001.127	-2357.5
2001.128	-1452.5	2001.128	-1742.5	2001.128	-1725	2001.128	-2247.5
2001.129	-1492.5	2001.129	-1647.5	2001.129	-1692.5	2001.129	-2100
2001.13	-1450	2001.13	-1685	2001.13	-1652.5	2001.13	-1965
2001.131	-1420	2001.131	-1692.5	2001.131	-1540	2001.131	-1892.5
2001.132	-1417.5	2001.132	-1680	2001.132	-1552.5	2001.132	-1885
2001.133	-1402.5	2001.133	-1615	2001.133	-1412.5	2001.133	-1757.5
2001.134	-1375	2001.134	-1622.5	2001.134	-1425	2001.134	-1745
2001.135	-1425	2001.135	-1605	2001.135	-1477.5	2001.135	-1767.5
2001.136	-1440	2001.136	-1675	2001.136	-1515	2001.136	-1780
2001.137	-1437.5	2001.137	-1562.5	2001.137	-1467.5	2001.137	-1850
2001.138	-1435	2001.138	-1662.5	2001.138	-1502.5	2001.138	-1905
2001.139	-1450	2001.139	-1740	2001.139	-1617.5	2001.139	-2010
2001.14	-1447.5	2001.14	-1857.5	2001.14	-1595	2001.14	-2070
2001.141	-1467.5	2001.141	-1835	2001.141	-1642.5	2001.141	-2122.5
2001.142	-1410	2001.142	-1790	2001.142	-1675	2001.142	-2222.5
2001.143	-1447.5	2001.143	-1755	2001.143	-1650	2001.143	-2180
2001.144	-1445	2001.144	-1785	2001.144	-1695	2001.144	-2217.5
2001.145	-1402.5	2001.145	-1662.5	2001.145	-1585	2001.145	-2182.5
2001.146	-1525	2001.146	-1752.5	2001.146	-1600	2001.146	-2187.5
2001.147	-1735	2001.147	-1890	2001.147	-1732.5	2001.147	-2267.5
2001.148	-1835	2001.148	-1985	2001.148	-1790	2001.148	-2350
2001.149	-1885	2001.149	-2035	2001.149	-1847.5	2001.149	-2262.5
2001.15	-2227.5	2001.15	-2447.5	2001.15	-2190	2001.15	-2522.5
2001.151	-2522.5	2001.151	-2705	2001.151	-2372.5	2001.151	-2617.5
2001.152	-2637.5	2001.152	-2827.5	2001.152	-2427.5	2001.152	-2687.5
2001.153	-2332.5	2001.153	-2582.5	2001.153	-2222.5	2001.153	-2335
2001.154	-1807.5	2001.154	-2110	2001.154	-1645	2001.154	-1895
2001.155	-1345	2001.155	-1695	2001.155	-1367.5	2001.155	-1510
2001.156	-965	2001.156	-1335	2001.156	-952.5	2001.156	-1227.5
2001.157	-582.5	2001.157	-950	2001.157	-617.5	2001.157	-822.5
2001.158	-117.5	2001.158	-590	2001.158	-240	2001.158	-545
2001.159	-257.5	2001.159	-740	2001.159	-375	2001.159	-715
2001.16	-575	2001.16	-1100	2001.16	-622.5	2001.16	-1050
2001.161	-537.5	2001.161	-1142.5	2001.161	-660	2001.161	-1065
2001.162	-1057.5	2001.162	-1552.5	2001.162	-1097.5	2001.162	-1520
2001.163	-2200	2001.163	-2587.5	2001.163	-2167.5	2001.163	-2675
2001.164	-2650	2001.164	-3117.5	2001.164	-2600	2001.164	-3075
2001.165	-1397.5	2001.165	-1975	2001.165	-1372.5	2001.165	-1940
2001.166	-1422.5	2001.166	-1877.5	2001.166	-1397.5	2001.166	-1815
2001.167	-1470	2001.167	-1872.5	2001.167	-1405	2001.167	-1780
2001.168	-1535	2001.168	-1905	2001.168	-1397.5	2001.168	-1752.5
2001.169	-1395	2001.169	-1740	2001.169	-1212.5	2001.169	-1562.5
2001.17	-1737.5	2001.17	-2107.5	2001.17	-1537.5	2001.17	-1762.5
2001.171	-1875	2001.171	-2130	2001.171	-1672.5	2001.171	-1885
2001.172	-1947.5	2001.172	-2172.5	2001.172	-1767.5	2001.172	-1850
2001.173	-2282.5	2001.173	-2495	2001.173	-1925	2001.173	-2117.5
2001.174	-3002.5	2001.174	-3290	2001.174	-2677.5	2001.174	-2775
2001.175	-3287.5	2001.175	-3552.5	2001.175	-2937.5	2001.175	-3062.5
2001.176	-3602.5	2001.176	-3987.5	2001.176	-3290	2001.176	-3492.5
2001.177	-3760	2001.177	-4162.5	2001.177	-3425	2001.177	-3627.5
2001.178	-3782.5	2001.178	-4137.5	2001.178	-3497.5	2001.178	-3742.5
2001.179	-3732.5	2001.179	-4112.5	2001.179	-3482.5	2001.179	-3780
2001.18	-3700	2001.18	-4050	2001.18	-3532.5	2001.18	-3820
2001.181	-3662.5	2001.181	-4020	2001.181	-3475	2001.181	-3840
2001.182	-3537.5	2001.182	-3927.5	2001.182	-3422.5	2001.182	-3802.5
2001.183	-3460	2001.183	-3857.5	2001.183	-3362.5	2001.183	-3730
2001.184	-3400	2001.184	-3740	2001.184	-3257.5	2001.184	-3690
2001.185	-3300	2001.185	-3590	2001.185	-3170	2001.185	-3542.5
2001.186	-3155	2001.186	-3525	2001.186	-3030	2001.186	-3422.5
2001.187	-3067.5	2001.187	-3360	2001.187	-2870	2001.187	-3222.5
2001.188	-2980	2001.188	-3322.5	2001.188	-2710	2001.188	-3092.5
2001.189	-2832.5	2001.189	-3157.5	2001.189	-2547.5	2001.189	-2857.5
2001.19	-2745	2001.19	-3072.5	2001.19	-2440	2001.19	-2727.5
2001.191	-2702.5	2001.191	-3125	2001.191	-2325	2001.191	-2555
2001.192	-2660	2001.192	-3002.5	2001.192	-2302.5	2001.192	-2432.5
2001.193	-2620	2001.193	-2875	2001.193	-2240	2001.193	-2350
2001.194	-2545	2001.194	-2850	2001.194	-2105	2001.194	-2227.5
2001.195	-2430	2001.195	-2745	2001.195	-2002.5	2001.195	-2257.5
2001.196	-2407.5	2001.196	-2785	2001.196	-2052.5	2001.196	-2225
2001.197	-2297.5	2001.197	-2847.5	2001.197	-1912.5	2001.197	-2167.5
2001.198	-2257.5	2001.198	-2742.5	2001.198	-1922.5	2001.198	-2207.5
2001.199	-2265	2001.199	-2735	2001.199	-1987.5	2001.199	-2297.5
2001.2	-2270	2001.2	-2772.5	2001.2	-1935	2001.2	-2345
2001.201	-2265	2001.201	-2757.5	2001.201	-1975	2001.201	-2452.5
2001.202	-2215	2001.202	-2735	2001.202	-1977.5	2001.202	-2472.5
2001.203	-2135	2001.203	-2692.5	2001.203	-1925	2001.203	-2382.5
2001.204	-2110	2001.204	-2607.5	2001.204	-1917.5	2001.204	-2427.5
2001.205	-2090	2001.205	-2540	2001.205	-1857.5	2001.205	-2347.5
2001.206	-2050	2001.206	-2507.5	2001.206	-1722.5	2001.206	-2225
2001.207	-2017.5	2001.207	-2487.5	2001.207	-1760	2001.207	-2177.5
2001.208	-2035	2001.208	-2495	2001.208	-1670	2001.208	-2127.5
2001.209	-2115	2001.209	-2512.5	2001.209	-1655	2001.209	-2087.5
2001.21	-2690	2001.21	-3015	2001.21	-2260	2001.21	-2577.5
2001.211	-3475	2001.211	-3885	2001.211	-2902.5	2001.211	-3092.5
2001.212	-3585	2001.212	-4192.5	2001.212	-2760	2001.212	-2615
2001.213	-2450	2001.213	-4112.5	2001.213	-1222.5	2001.213	-677.5
2001.214	200	2001.214	-3347.5	2001.214	2100	2001.214	2220
2001.215	6137.5	2001.215	12.5	2001.215	8957.5	2001.215	8005
2001.216	16360	2001.216	8450	2001.216	19737.5	2001.216	17377.5
2001.217	28210	2001.217	20310	2001.217	30707.5	2001.217	26270
2001.218	38405	2001.218	34557.5	2001.218	39620	2001.218	32845
2001.219	45400	2001.219	47492.5	2001.219	47397.5	2001.219	38570
2001.22	40140	2001.22	56175	2001.22	50997.5	2001.22	45672.5
2001.221	36797.5	2001.221	55137.5	2001.221	45572.5	2001.221	51845
2001.222	48120	2001.222	47742.5	2001.222	36937.5	2001.222	56042.5
2001.223	5712.5	2001.223	-18742.5	2001.223	-28910	2001.223	-16557.5
2001.224	-8732.5	2001.224	-11682.5	2001.224	-10365	2001.224	-9997.5
2001.225	-1580	2001.225	-7070	2001.225	-3805	2001.225	-2485
2001.226	2792.5	2001.226	-3527.5	2001.226	-420	2001.226	2330
2001.227	7260	2001.227	425	2001.227	3932.5	2001.227	7222.5
2001.228	9962.5	2001.228	2875	2001.228	7010	2001.228	10852.5
2001.229	11010	2001.229	3607.5	2001.229	8555	2001.229	13177.5
2001.23	12035	2001.23	4222.5	2001.23	10022.5	2001.23	15460
2001.231	13552.5	2001.231	5380	2001.231	11857.5	2001.231	18222.5
2001.232	15002.5	2001.232	6645	2001.232	13515	2001.232	20757.5
2001.233	16710	2001.233	8052.5	2001.233	15230	2001.233	23240
2001.234	18265	2001.234	9450	2001.234	16715	2001.234	25122.5
2001.235	19540	2001.235	11132.5	2001.235	17747.5	2001.235	26367.5
2001.236	20730	2001.236	12955	2001.236	18655	2001.236	26990
2001.237	21605	2001.237	14955	2001.237	19330	2001.237	27097.5
2001.238	22170	2001.238	16710	2001.238	19727.5	2001.238	26880
2001.239	22387.5	2001.239	18252.5	2001.239	19922.5	2001.239	26307.5
2001.24	22357.5	2001.24	19300	2001.24	19947.5	2001.24	25580
2001.241	22135	2001.241	19945	2001.241	19897.5	2001.241	24692.5
2001.242	21772.5	2001.242	20232.5	2001.242	19690	2001.242	23825
2001.243	21240	2001.243	20200	2001.243	19512.5	2001.243	22900
2001.244	20625	2001.244	19872.5	2001.244	19167.5	2001.244	22000
2001.245	19997.5	2001.245	19427.5	2001.245	18637.5	2001.245	21122.5
2001.246	19240	2001.246	18887.5	2001.246	18167.5	2001.246	20287.5
2001.247	18490	2001.247	18370	2001.247	17670	2001.247	19442.5
2001.248	17712.5	2001.248	17647.5	2001.248	17055	2001.248	18662.5
2001.249	16990	2001.249	16932.5	2001.249	16510	2001.249	17945
2001.25	16227.5	2001.25	16282.5	2001.25	15990	2001.25	17180
2001.251	15550	2001.251	15567.5	2001.251	15470	2001.251	16567.5
2001.252	14820	2001.252	14935	2001.252	14830	2001.252	15822.5
2001.253	14152.5	2001.253	14252.5	2001.253	14370	2001.253	15145
2001.254	13375	2001.254	13607.5	2001.254	13642.5	2001.254	14457.5
2001.255	12742.5	2001.255	12675	2001.255	13102.5	2001.255	13755
2001.256	12077.5	2001.256	11882.5	2001.256	12500	2001.256	13030
2001.257	11420	2001.257	11510	2001.257	11952.5	2001.257	12297.5
2001.258	10842.5	2001.258	10977.5	2001.258	11332.5	2001.258	11557.5
2001.259	10265	2001.259	10335	2001.259	10777.5	2001.259	10910
2001.26	9672.5	2001.26	9735	2001.26	10270	2001.26	10297.5
2001.261	9142.5	2001.261	9277.5	2001.261	9757.5	2001.261	9630
2001.262	8620	2001.262	8765	2001.262	9310	2001.262	9092.5
2001.263	8115	2001.263	8310	2001.263	8912.5	2001.263	8585
2001.264	7680	2001.264	7805	2001.264	8512.5	2001.264	8127.5
2001.265	7240	2001.265	7397.5	2001.265	8107.5	2001.265	7690
2001.266	6825	2001.266	6962.5	2001.266	7792.5	2001.266	7365
2001.267	6487.5	2001.267	5632.5	2001.267	7462.5	2001.267	7087.5
2001.268	6187.5	2001.268	5227.5	2001.268	7332.5	2001.268	6850
2001.269	5825	2001.269	4747.5	2001.269	7057.5	2001.269	6602.5
2001.27	5592.5	2001.27	4502.5	2001.27	6825	2001.27	6402.5
2001.271	5260	2001.271	4282.5	2001.271	6637.5	2001.271	6195
2001.272	4987.5	2001.272	4022.5	2001.272	6462.5	2001.272	5975
2001.273	4795	2001.273	4007.5	2001.273	6182.5	2001.273	5712.5
2001.274	4535	2001.274	3932.5	2001.274	5920	2001.274	5475
2001.275	4277.5	2001.275	3632.5	2001.275	5830	2001.275	5195
2001.276	4020	2001.276	3270	2001.276	5525	2001.276	4880
2001.277	3787.5	2001.277	3070	2001.277	5292.5	2001.277	4592.5
2001.278	3487.5	2001.278	2865	2001.278	4957.5	2001.278	4230
2001.279	3300	2001.279	2765	2001.279	4790	2001.279	3915
2001.28	3017.5	2001.28	2627.5	2001.28	4552.5	2001.28	3622.5
2001.281	2822.5	2001.281	2467.5	2001.281	4320	2001.281	3382.5
2001.282	2582.5	2001.282	2337.5	2001.282	4102.5	2001.282	3100
2001.283	2365	2001.283	2177.5	2001.283	3932.5	2001.283	2820
2001.284	2172.5	2001.284	2080	2001.284	3725	2001.284	2595
2001.285	1977.5	2001.285	2067.5	2001.285	3545	2001.285	2450
2001.286	1802.5	2001.286	1817.5	2001.286	3452.5	2001.286	2357.5
2001.287	1560	2001.287	1725	2001.287	3445	2001.287	2215
2001.288	1377.5	2001.288	1555	2001.288	3250	2001.288	2167.5
2001.289	1145	2001.289	1420	2001.289	2945	2001.289	1995
2001.29	982.5	2001.29	1197.5	2001.29	2895	2001.29	1912.5
2001.291	760	2001.291	1087.5	2001.291	2692.5	2001.291	1817.5
2001.292	540	2001.292	872.5	2001.292	2560	2001.292	1670
2001.293	350	2001.293	655	2001.293	2367.5	2001.293	1477.5
2001.294	150	2001.294	595	2001.294	2165	2001.294	1252.5
2001.295	-57.5	2001.295	437.5	2001.295	1995	2001.295	1027.5
2001.296	-325	2001.296	260	2001.296	1595	2001.296	782.5
2001.297	-492.5	2001.297	135	2001.297	1377.5	2001.297	522.5
2001.298	-737.5	2001.298	-22.5	2001.298	1185	2001.298	177.5
2001.299	-975	2001.299	-75	2001.299	865	2001.299	-87.5
2001.3	-1195	2001.3	-190	2001.3	685	2001.3	-422.5
2001.301	-1417.5	2001.301	-232.5	2001.301	457.5	2001.301	-732.5
2001.302	-1582.5	2001.302	-265	2001.302	212.5	2001.302	-962.5
2001.303	-1782.5	2001.303	-347.5	2001.303	-25	2001.303	-1165
2001.304	-1950	2001.304	-552.5	2001.304	-207.5	2001.304	-1350
2001.305	-2187.5	2001.305	-612.5	2001.305	-397.5	2001.305	-1517.5
2001.306	-2297.5	2001.306	-687.5	2001.306	-487.5	2001.306	-1557.5
2001.307	-2495	2001.307	-807.5	2001.307	-562.5	2001.307	-1682.5
2001.308	-2570	2001.308	-980	2001.308	-707.5	2001.308	-1807.5
2001.309	-2715	2001.309	-1067.5	2001.309	-860	2001.309	-1870
2001.31	-2895	2001.31	-1187.5	2001.31	-1050	2001.31	-1935
2001.311	-3037.5	2001.311	-1287.5	2001.311	-1152.5	2001.311	-1987.5
2001.312	-3217.5	2001.312	-1372.5	2001.312	-1302.5	2001.312	-2057.5
2001.313	-3302.5	2001.313	-1512.5	2001.313	-1440	2001.313	-2145
2001.314	-3417.5	2001.314	-1520	2001.314	-1595	2001.314	-2267.5
2001.315	-3542.5	2001.315	-1702.5	2001.315	-1740	2001.315	-2452.5
2001.316	-3690	2001.316	-1797.5	2001.316	-1982.5	2001.316	-2722.5
2001.317	-3822.5	2001.317	-1867.5	2001.317	-2160	2001.317	-2877.5
2001.318	-3947.5	2001.318	-2005	2001.318	-2390	2001.318	-3157.5
2001.319	-4037.5	2001.319	-2030	2001.319	-2470	2001.319	-3355
2001.32	-4125	2001.32	-2162.5	2001.32	-2635	2001.32	-3475
2001.321	-4197.5	2001.321	-2192.5	2001.321	-2830	2001.321	-3697.5
2001.322	-4272.5	2001.322	-2182.5	2001.322	-2917.5	2001.322	-3860
2001.323	-4355	2001.323	-2270	2001.323	-2987.5	2001.323	-3925
2001.324	-4357.5	2001.324	-2372.5	2001.324	-3075	2001.324	-4035
2001.325	-4432.5	2001.325	-2420	2001.325	-3097.5	2001.325	-4097.5
2001.326	-4455	2001.326	-2495	2001.326	-3280	2001.326	-4095
2001.327	-4540	2001.327	-2640	2001.327	-3200	2001.327	-4057.5
2001.328	-4522.5	2001.328	-2665	2001.328	-3220	2001.328	-4017.5
2001.329	-4555	2001.329	-2757.5	2001.329	-3315	2001.329	-3985
2001.33	-4630	2001.33	-2785	2001.33	-3337.5	2001.33	-3935
2001.331	-4637.5	2001.331	-2745	2001.331	-3335	2001.331	-3852.5
2001.332	-4667.5	2001.332	-2807.5	2001.332	-3367.5	2001.332	-3962.5
2001.333	-4682.5	2001.333	-2760	2001.333	-3405	2001.333	-3905
2001.334	-4750	2001.334	-2745	2001.334	-3495	2001.334	-4002.5
2001.335	-4767.5	2001.335	-2760	2001.335	-3520	2001.335	-4062.5
2001.336	-4772.5	2001.336	-2877.5	2001.336	-3625	2001.336	-4095
2001.337	-4782.5	2001.337	-2857.5	2001.337	-3607.5	2001.337	-4142.5
2001.338	-4807.5	2001.338	-2922.5	2001.338	-3732.5	2001.338	-4272.5
2001.339	-4887.5	2001.339	-2962.5	2001.339	-3877.5	2001.339	-4447.5
2001.34	-4862.5	2001.34	-3042.5	2001.34	-3877.5	2001.34	-4537.5
2001.341	-4870	2001.341	-3070	2001.341	-4030	2001.341	-4655
2001.342	-4842.5	2001.342	-3045	2001.342	-4022.5	2001.342	-4617.5
2001.343	-4872.5	2001.343	-3092.5	2001.343	-4005	2001.343	-4685
2001.344	-4847.5	2001.344	-3132.5	2001.344	-3987.5	2001.344	-4675
2001.345	-4847.5	2001.345	-3145	2001.345	-4035	2001.345	-4682.5
2001.346	-4847.5	2001.346	-3147.5	2001.346	-4015	2001.346	-4552.5
2001.347	-4845	2001.347	-3145	2001.347	-3980	2001.347	-4540
2001.348	-4792.5	2001.348	-3097.5	2001.348	-3877.5	2001.348	-4410
2001.349	-4797.5	2001.349	-3042.5	2001.349	-3872.5	2001.349	-4355
2001.35	-4772.5	2001.35	-3062.5	2001.35	-3842.5	2001.35	-4275
2001.351	-4720	2001.351	-3005	2001.351	-3827.5	2001.351	-4217.5
2001.352	-4757.5	2001.352	-3017.5	2001.352	-3820	2001.352	-4095
2001.353	-4725	2001.353	-2850	2001.353	-3815	2001.353	-4047.5
2001.354	-4717.5	2001.354	-2895	2001.354	-3822.5	2001.354	-4002.5
2001.355	-4665	2001.355	-2865	2001.355	-3782.5	2001.355	-4090
2001.356	-4730	2001.356	-2985	2001.356	-3940	2001.356	-4157.5
2001.357	-4705	2001.357	-2917.5	2001.357	-3920	2001.357	-4247.5
2001.358	-4710	2001.358	-2895	2001.358	-4012.5	2001.358	-4327.5
2001.359	-4680	2001.359	-2962.5	2001.359	-4017.5	2001.359	-4402.5
2001.36	-4707.5	2001.36	-3035	2001.36	-4080	2001.36	-4465
2001.361	-4715	2001.361	-3105	2001.361	-4080	2001.361	-4552.5
2001.362	-4692.5	2001.362	-3050	2001.362	-4132.5	2001.362	-4555
2001.363	-4617.5	2001.363	-3152.5	2001.363	-4107.5	2001.363	-4570
2001.364	-4642.5	2001.364	-3197.5	2001.364	-4097.5	2001.364	-4610
2001.365	-4602.5	2001.365	-3147.5	2001.365	-4077.5	2001.365	-4522.5
2001.366	-4520	2001.366	-3137.5	2001.366	-4025	2001.366	-4402.5
2001.367	-4530	2001.367	-3100	2001.367	-3892.5	2001.367	-4320
2001.368	-4485	2001.368	-3045	2001.368	-3790	2001.368	-4197.5
2001.369	-4425	2001.369	-2985	2001.369	-3792.5	2001.369	-4117.5
2001.37	-4415	2001.37	-2897.5	2001.37	-3790	2001.37	-4047.5
2001.371	-4397.5	2001.371	-2890	2001.371	-3750	2001.371	-3942.5
2001.372	-4382.5	2001.372	-2790	2001.372	-3687.5	2001.372	-3895
2001.373	-4360	2001.373	-2827.5	2001.373	-3655	2001.373	-3840
2001.374	-4330	2001.374	-2792.5	2001.374	-3580	2001.374	-3772.5
2001.375	-4325	2001.375	-2802.5	2001.375	-3665	2001.375	-3762.5
2001.376	-4317.5	2001.376	-2797.5	2001.376	-3695	2001.376	-3867.5
2001.377	-4302.5	2001.377	-2785	2001.377	-3710	2001.377	-3937.5
2001.378	-4302.5	2001.378	-2905	2001.378	-3795	2001.378	-4002.5
2001.379	-4247.5	2001.379	-2927.5	2001.379	-3770	2001.379	-4045
2001.38	-4227.5	2001.38	-2957.5	2001.38	-3725	2001.38	-4132.5
2001.381	-4215	2001.381	-2965	2001.381	-3847.5	2001.381	-4175
2001.382	-4172.5	2001.382	-2970	2001.382	-3762.5	2001.382	-4165
2001.383	-4137.5	2001.383	-2940	2001.383	-3825	2001.383	-4152.5
2001.384	-4057.5	2001.384	-2947.5	2001.384	-3770	2001.384	-4137.5
2001.385	-4085	2001.385	-2975	2001.385	-3662.5	2001.385	-4145
2001.386	-4037.5	2001.386	-2837.5	2001.386	-3670	2001.386	-4017.5
2001.387	-4027.5	2001.387	-2840	2001.387	-3600	2001.387	-4002.5
2001.388	-4022.5	2001.388	-2627.5	2001.388	-3595	2001.388	-3887.5
2001.389	-4005	2001.389	-2442.5	2001.389	-3507.5	2001.389	-3817.5
2001.39	-3987.5	2001.39	-2355	2001.39	-3557.5	2001.39	-3735
2001.391	-3960	2001.391	-2310	2001.391	-3480	2001.391	-3677.5
2001.392	-3945	2001.392	-2302.5	2001.392	-3422.5	2001.392	-3580
2001.393	-3897.5	2001.393	-2177.5	2001.393	-3365	2001.393	-3512.5
2001.394	-3865	2001.394	-2167.5	2001.394	-3397.5	2001.394	-3457.5
2001.395	-3817.5	2001.395	-2205	2001.395	-3317.5	2001.395	-3420
2001.396	-3830	2001.396	-2280	2001.396	-3352.5	2001.396	-3527.5
2001.397	-3835	2001.397	-2380	2001.397	-3445	2001.397	-3657.5
2001.398	-3810	2001.398	-2425	2001.398	-3460	2001.398	-3737.5
2001.399	-3792.5	2001.399	-2445	2001.399	-3525	2001.399	-3810
2001.4	-3807.5	2001.4	-2502.5	2001.4	-3612.5	2001.4	-3930
2001.401	-3827.5	2001.401	-2537.5	2001.401	-3645	2001.401	-3942.5
2001.402	-3780	2001.402	-2560	2001.402	-3557.5	2001.402	-3977.5
2001.403	-3727.5	2001.403	-2530	2001.403	-3612.5	2001.403	-4015
2001.404	-3725	2001.404	-2540	2001.404	-3610	2001.404	-4020
2001.405	-3687.5	2001.405	-2465	2001.405	-3580	2001.405	-3995
2001.406	-3642.5	2001.406	-2420	2001.406	-3447.5	2001.406	-3965
2001.407	-3587.5	2001.407	-2385	2001.407	-3460	2001.407	-3780
2001.408	-3567.5	2001.408	-2340	2001.408	-3347.5	2001.408	-3690
2001.409	-3542.5	2001.409	-2357.5	2001.409	-3340	2001.409	-3642.5
2001.41	-3502.5	2001.41	-2290	2001.41	-3270	2001.41	-3555
2001.411	-3440	2001.411	-2212.5	2001.411	-3155	2001.411	-3397.5
2001.412	-3425	2001.412	-2132.5	2001.412	-3122.5	2001.412	-3400
2001.413	-3392.5	2001.413	-2085	2001.413	-3025	2001.413	-3350
2001.414	-3335	2001.414	-2045	2001.414	-3092.5	2001.414	-3295
2001.415	-3337.5	2001.415	-2025	2001.415	-3105	2001.415	-3370
2001.416	-3390	2001.416	-2095	2001.416	-3137.5	2001.416	-3400
2001.417	-3360	2001.417	-2157.5	2001.417	-3032.5	2001.417	-3465
2001.418	-3372.5	2001.418	-2190	2001.418	-3220	2001.418	-3607.5
2001.419	-3372.5	2001.419	-2140	2001.419	-3230	2001.419	-3740
2001.42	-3297.5	2001.42	-2120	2001.42	-3297.5	2001.42	-3782.5
2001.421	-3367.5	2001.421	-2112.5	2001.421	-3217.5	2001.421	-3795
2001.422	-3290	2001.422	-2195	2001.422	-3297.5	2001.422	-3827.5
2001.423	-3257.5	2001.423	-2207.5	2001.423	-3222.5	2001.423	-3877.5
2001.424	-3242.5	2001.424	-2115	2001.424	-3225	2001.424	-3880
2001.425	-3212.5	2001.425	-2055	2001.425	-3232.5	2001.425	-3910
2001.426	-3192.5	2001.426	-1950	2001.426	-3167.5	2001.426	-3770
2001.427	-3162.5	2001.427	-2005	2001.427	-3180	2001.427	-3747.5
2001.428	-3117.5	2001.428	-1992.5	2001.428	-3075	2001.428	-3682.5
2001.429	-3107.5	2001.429	-1907.5	2001.429	-3135	2001.429	-3595
2001.43	-3030	2001.43	-1867.5	2001.43	-2942.5	2001.43	-3487.5
2001.431	-3057.5	2001.431	-1902.5	2001.431	-2872.5	2001.431	-3477.5
2001.432	-3062.5	2001.432	-1935	2001.432	-2957.5	2001.432	-3455
2001.433	-3060	2001.433	-1837.5	2001.433	-2915	2001.433	-3415
2001.434	-3005	2001.434	-1850	2001.434	-2830	2001.434	-3415
2001.435	-3010	2001.435	-1855	2001.435	-2875	2001.435	-3435
2001.436	-3007.5	2001.436	-1927.5	2001.436	-2840	2001.436	-3475
2001.437	-2952.5	2001.437	-1897.5	2001.437	-2847.5	2001.437	-3430
2001.438	-2912.5	2001.438	-1910	2001.438	-2940	2001.438	-3665
2001.439	-2885	2001.439	-1947.5	2001.439	-2917.5	2001.439	-3725
2001.44	-2897.5	2001.44	-1885	2001.44	-2935	2001.44	-3820
2001.441	-2890	2001.441	-1860	2001.441	-2945	2001.441	-3905
2001.442	-2872.5	2001.442	-1880	2001.442	-2932.5	2001.442	-3970
2001.443	-2890	2001.443	-1887.5	2001.443	-2912.5	2001.443	-3997.5
2001.444	-2827.5	2001.444	-1840	2001.444	-3017.5	2001.444	-3990
2001.445	-2872.5	2001.445	-1835	2001.445	-2937.5	2001.445	-3960
2001.446	-2870	2001.446	-1760	2001.446	-2910	2001.446	-3892.5
2001.447	-2830	2001.447	-1602.5	2001.447	-2832.5	2001.447	-3872.5
2001.448	-2772.5	2001.448	-1682.5	2001.448	-2782.5	2001.448	-3720
2001.449	-2697.5	2001.449	-1765	2001.449	-2662.5	2001.449	-3602.5
2001.45	-2692.5	2001.45	-1742.5	2001.45	-2622.5	2001.45	-3525
2001.451	-2665	2001.451	-1695	2001.451	-2547.5	2001.451	-3417.5
2001.452	-2630	2001.452	-1757.5	2001.452	-2480	2001.452	-3452.5
2001.453	-2675	2001.453	-1705	2001.453	-2470	2001.453	-3407.5
2001.454	-2657.5	2001.454	-1732.5	2001.454	-2457.5	2001.454	-3385
2001.455	-2665	2001.455	-1770	2001.455	-2467.5	2001.455	-3397.5
2001.456	-2665	2001.456	-1785	2001.456	-2517.5	2001.456	-3497.5
2001.457	-2667.5	2001.457	-1772.5	2001.457	-2602.5	2001.457	-3522.5
2001.458	-2642.5	2001.458	-1815	2001.458	-2602.5	2001.458	-3622.5
2001.459	-2640	2001.459	-1807.5	2001.459	-2615	2001.459	-3687.5
2001.46	-2640	2001.46	-1797.5	2001.46	-2667.5	2001.46	-3822.5
2001.461	-2625	2001.461	-1740	2001.461	-2657.5	2001.461	-3897.5
2001.462	-2645	2001.462	-1722.5	2001.462	-2770	2001.462	-3967.5
2001.463	-2617.5	2001.463	-1697.5	2001.463	-2675	2001.463	-3987.5
2001.464	-2562.5	2001.464	-1685	2001.464	-2730	2001.464	-3987.5
2001.465	-2557.5	2001.465	-1660	2001.465	-2617.5	2001.465	-3955
2001.466	-2495	2001.466	-1670	2001.466	-2600	2001.466	-3915
2001.467	-2410	2001.467	-1642.5	2001.467	-2532.5	2001.467	-3865
2001.468	-2397.5	2001.468	-1512.5	2001.468	-2517.5	2001.468	-3700
2001.469	-2350	2001.469	-1527.5	2001.469	-2420	2001.469	-3637.5
2001.47	-2330	2001.47	-1500	2001.47	-2342.5	2001.47	-3550
2001.471	-2282.5	2001.471	-1465	2001.471	-2300	2001.471	-3392.5
2001.472	-2252.5	2001.472	-1447.5	2001.472	-2240	2001.472	-3372.5
2001.473	-2207.5	2001.473	-1445	2001.473	-2170	2001.473	-3277.5
2001.474	-2180	2001.474	-1475	2001.474	-2227.5	2001.474	-3297.5
2001.475	-2152.5	2001.475	-1445	2001.475	-2240	2001.475	-3297.5
2001.476	-2185	2001.476	-1485	2001.476	-2220	2001.476	-3370
2001.477	-2160	2001.477	-1515	2001.477	-2352.5	2001.477	-3405
2001.478	-2092.5	2001.478	-1545	2001.478	-2332.5	2001.478	-3425
2001.479	-2095	2001.479	-1565	2001.479	-2285	2001.479	-3495
2001.48	-2075	2001.48	-1462.5	2001.48	-2317.5	2001.48	-3530
2001.481	-2097.5	2001.481	-1480	2001.481	-2365	2001.481	-3677.5
2001.482	-2070	2001.482	-1377.5	2001.482	-2360	2001.482	-3720
2001.483	-2070	2001.483	-1400	2001.483	-2407.5	2001.483	-3732.5
2001.484	-2067.5	2001.484	-1325	2001.484	-2382.5	2001.484	-3735
2001.485	-2090	2001.485	-1270	2001.485	-2417.5	2001.485	-3642.5
2001.486	-2010	2001.486	-1285	2001.486	-2342.5	2001.486	-3565
2001.487	-2005	2001.487	-1290	2001.487	-2287.5	2001.487	-3517.5
2001.488	-1937.5	2001.488	-1207.5	2001.488	-2190	2001.488	-3407.5
2001.489	-1947.5	2001.489	-1185	2001.489	-2025	2001.489	-3242.5
2001.49	-1880	2001.49	-1225	2001.49	-1945	2001.49	-3105
2001.491	-1832.5	2001.491	-1202.5	2001.491	-1912.5	2001.491	-3025
2001.492	-1842.5	2001.492	-1192.5	2001.492	-1842.5	2001.492	-2875
2001.493	-1780	2001.493	-1197.5	2001.493	-1792.5	2001.493	-2795
2001.494	-1807.5	2001.494	-1180	2001.494	-1897.5	2001.494	-2830
2001.495	-1787.5	2001.495	-1160	2001.495	-1847.5	2001.495	-2832.5
2001.496	-1837.5	2001.496	-1255	2001.496	-1935	2001.496	-2892.5
2001.497	-1810	2001.497	-1210	2001.497	-1945	2001.497	-2990
2001.498	-1822.5	2001.498	-1220	2001.498	-2067.5	2001.498	-3045
2001.499	-1837.5	2001.499	-1307.5	2001.499	-2075	2001.499	-3112.5
2001.5	-1817.5	2001.5	-1262.5	2001.5	-2005	2001.5	-3202.5
2001.501	-1795	2001.501	-1202.5	2001.501	-2150	2001.501	-3292.5
2001.502	-1775	2001.502	-1105	2001.502	-2052.5	2001.502	-3285
2001.503	-1787.5	2001.503	-1040	2001.503	-2080	2001.503	-3297.5
2001.504	-1827.5	2001.504	-1102.5	2001.504	-2140	2001.504	-3297.5
2001.505	-1725	2001.505	-990	2001.505	-2077.5	2001.505	-3237.5
2001.506	-1760	2001.506	-932.5	2001.506	-2022.5	2001.506	-3130
2001.507	-1745	2001.507	-952.5	2001.507	-2020	2001.507	-3125
2001.508	-1737.5	2001.508	-967.5	2001.508	-1880	2001.508	-2950
2001.509	-1670	2001.509	-980	2001.509	-1782.5	2001.509	-2900
2001.51	-1660	2001.51	-1005	2001.51	-1770	2001.51	-2765
2001.511	-1627.5	2001.511	-970	2001.511	-1725	2001.511	-2715
2001.512	-1637.5	2001.512	-940	2001.512	-1752.5	2001.512	-2562.5
2001.513	-1585	2001.513	-947.5	2001.513	-1612.5	2001.513	-2515
2001.514	-1585	2001.514	-912.5	2001.514	-1625	2001.514	-2470
2001.515	-1585	2001.515	-937.5	2001.515	-1677.5	2001.515	-2490
2001.516	-1667.5	2001.516	-947.5	2001.516	-1752.5	2001.516	-2610
2001.517	-1685	2001.517	-962.5	2001.517	-1747.5	2001.517	-2670
2001.518	-1657.5	2001.518	-982.5	2001.518	-1807.5	2001.518	-2765
2001.519	-1640	2001.519	-855	2001.519	-1837.5	2001.519	-2852.5
2001.52	-1677.5	2001.52	-890	2001.52	-1922.5	2001.52	-2865
2001.521	-1685	2001.521	-802.5	2001.521	-2052.5	2001.521	-2995
2001.522	-1645	2001.522	-770	2001.522	-1927.5	2001.522	-3000
2001.523	-1665	2001.523	-675	2001.523	-1865	2001.523	-3050
2001.524	-1635	2001.524	-642.5	2001.524	-1807.5	2001.524	-3035
2001.525	-1627.5	2001.525	-662.5	2001.525	-1845	2001.525	-2962.5
2001.526	-1575	2001.526	-610	2001.526	-1762.5	2001.526	-2890
2001.527	-1600	2001.527	-612.5	2001.527	-1702.5	2001.527	-2835
2001.528	-1535	2001.528	-597.5	2001.528	-1630	2001.528	-2670
2001.529	-1532.5	2001.529	-597.5	2001.529	-1642.5	2001.529	-2592.5
2001.53	-1525	2001.53	-617.5	2001.53	-1535	2001.53	-2535
2001.531	-1485	2001.531	-735	2001.531	-1470	2001.531	-2327.5
2001.532	-1452.5	2001.532	-622.5	2001.532	-1455	2001.532	-2307.5
2001.533	-1432.5	2001.533	-632.5	2001.533	-1445	2001.533	-2287.5
2001.534	-1432.5	2001.534	-570	2001.534	-1380	2001.534	-2237.5
2001.535	-1437.5	2001.535	-540	2001.535	-1382.5	2001.535	-2257.5
2001.536	-1452.5	2001.536	-547.5	2001.536	-1525	2001.536	-2267.5
2001.537	-1460	2001.537	-525	2001.537	-1417.5	2001.537	-2315
2001.538	-1477.5	2001.538	-520	2001.538	-1515	2001.538	-2365
2001.539	-1460	2001.539	-582.5	2001.539	-1552.5	2001.539	-2412.5
2001.54	-1500	2001.54	-637.5	2001.54	-1592.5	2001.54	-2530
2001.541	-1477.5	2001.541	-575	2001.541	-1702.5	2001.541	-2612.5
2001.542	-1477.5	2001.542	-575	2001.542	-1612.5	2001.542	-2630
2001.543	-1470	2001.543	-482.5	2001.543	-1727.5	2001.543	-2685
2001.544	-1462.5	2001.544	-335	2001.544	-1642.5	2001.544	-2660
2001.545	-1415	2001.545	-327.5	2001.545	-1582.5	2001.545	-2510
2001.546	-1380	2001.546	-307.5	2001.546	-1585	2001.546	-2430
2001.547	-1362.5	2001.547	-332.5	2001.547	-1412.5	2001.547	-2337.5
2001.548	-1355	2001.548	-337.5	2001.548	-1382.5	2001.548	-2232.5
2001.549	-1295	2001.549	-365	2001.549	-1317.5	2001.549	-2095
2001.55	-1287.5	2001.55	-360	2001.55	-1240	2001.55	-2077.5
2001.551	-1272.5	2001.551	-295	2001.551	-1217.5	2001.551	-1907.5
2001.552	-1295	2001.552	-197.5	2001.552	-1235	2001.552	-1830
2001.553	-1252.5	2001.553	-192.5	2001.553	-1132.5	2001.553	-1767.5
2001.554	-1230	2001.554	-192.5	2001.554	-1200	2001.554	-1690
2001.555	-1220	2001.555	-167.5	2001.555	-1145	2001.555	-1707.5
2001.556	-1302.5	2001.556	-230	2001.556	-1132.5	2001.556	-1772.5
2001.557	-1282.5	2001.557	-142.5	2001.557	-1187.5	2001.557	-1885
2001.558	-1225	2001.558	-300	2001.558	-1255	2001.558	-1882.5
2001.559	-1260	2001.559	-240	2001.559	-1337.5	2001.559	-1935
2001.56	-1197.5	2001.56	-300	2001.56	-1242.5	2001.56	-2050
2001.561	-1220	2001.561	-285	2001.561	-1295	2001.561	-2067.5
2001.562	-1207.5	2001.562	-280	2001.562	-1265	2001.562	-2132.5
2001.563	-1195	2001.563	-190	2001.563	-1217.5	2001.563	-2047.5
2001.564	-1190	2001.564	-215	2001.564	-1287.5	2001.564	-2055
2001.565	-1120	2001.565	-200	2001.565	-1310	2001.565	-1992.5
2001.566	-1127.5	2001.566	-175	2001.566	-1207.5	2001.566	-1867.5
2001.567	-1102.5	2001.567	-155	2001.567	-1095	2001.567	-1845
2001.568	-1122.5	2001.568	-122.5	2001.568	-1032.5	2001.568	-1752.5
2001.569	-1105	2001.569	-50	2001.569	-1027.5	2001.569	-1615
2001.57	-1072.5	2001.57	-35	2001.57	-970	2001.57	-1530
2001.571	-1075	2001.571	-62.5	2001.571	-877.5	2001.571	-1437.5
2001.572	-1045	2001.572	-7.5	2001.572	-875	2001.572	-1320
2001.573	-1027.5	2001.573	-32.5	2001.573	-842.5	2001.573	-1287.5
2001.574	-985	2001.574	-10	2001.574	-815	2001.574	-1212.5
2001.575	-990	2001.575	-25	2001.575	-767.5	2001.575	-1225
2001.576	-950	2001.576	-37.5	2001.576	-815	2001.576	-1260
2001.577	-1027.5	2001.577	-87.5	2001.577	-842.5	2001.577	-1360
2001.578	-1062.5	2001.578	-135	2001.578	-1012.5	2001.578	-1460
2001.579	-1112.5	2001.579	-35	2001.579	-1037.5	2001.579	-1617.5
2001.58	-1302.5	2001.58	-267.5	2001.58	-1232.5	2001.58	-1807.5
2001.581	-1590	2001.581	-532.5	2001.581	-1507.5	2001.581	-2162.5
2001.582	-1522.5	2001.582	-510	2001.582	-1490	2001.582	-2140
2001.583	-1855	2001.583	-842.5	2001.583	-1855	2001.583	-2505
2001.584	-2160	2001.584	-1072.5	2001.584	-2155	2001.584	-2727.5
2001.585	-2345	2001.585	-1292.5	2001.585	-2335	2001.585	-2860
2001.586	-2230	2001.586	-1150	2001.586	-2240	2001.586	-2745
2001.587	-1802.5	2001.587	-847.5	2001.587	-1750	2001.587	-2287.5
2001.588	-1215	2001.588	-257.5	2001.588	-1190	2001.588	-1657.5
2001.589	-885	2001.589	150	2001.589	-817.5	2001.589	-1322.5
2001.59	-630	2001.59	417.5	2001.59	-487.5	2001.59	-912.5
2001.591	-72.5	2001.591	975	2001.591	40	2001.591	-332.5
2001.592	245	2001.592	1180	2001.592	335	2001.592	-10
2001.593	-195	2001.593	787.5	2001.593	37.5	2001.593	-362.5
2001.594	-240	2001.594	725	2001.594	-60	2001.594	-362.5
2001.595	-497.5	2001.595	520	2001.595	-270	2001.595	-502.5
2001.596	-1240	2001.596	-262.5	2001.596	-1010	2001.596	-1255
2001.597	-2480	2001.597	-1530	2001.597	-2167.5	2001.597	-2430
2001.598	-1487.5	2001.598	-730	2001.598	-1345	2001.598	-1645
2001.599	-947.5	2001.599	-220	2001.599	-817.5	2001.599	-1175
2001.6	-1307.5	2001.6	-470	2001.6	-1162.5	2001.6	-1595
2001.601	-1202.5	2001.601	-387.5	2001.601	-1160	2001.601	-1530
2001.602	-1097.5	2001.602	-222.5	2001.602	-1065	2001.602	-1482.5
2001.603	-1355	2001.603	-425	2001.603	-1355	2001.603	-1742.5
2001.604	-1555	2001.604	-622.5	2001.604	-1665	2001.604	-1985
2001.605	-1692.5	2001.605	-705	2001.605	-1652.5	2001.605	-2067.5
2001.606	-1775	2001.606	-827.5	2001.606	-1707.5	2001.606	-2035
2001.607	-2452.5	2001.607	-1430	2001.607	-2212.5	2001.607	-2620
2001.608	-2940	2001.608	-1900	2001.608	-2605	2001.608	-2960
2001.609	-3217.5	2001.609	-2217.5	2001.609	-2782.5	2001.609	-3227.5
2001.61	-3432.5	2001.61	-2507.5	2001.61	-3047.5	2001.61	-3322.5
2001.611	-3415	2001.611	-2510	2001.611	-3100	2001.611	-3255
2001.612	-3432.5	2001.612	-2447.5	2001.612	-3080	2001.612	-3217.5
2001.613	-3380	2001.613	-2405	2001.613	-3010	2001.613	-3147.5
2001.614	-3315	2001.614	-2305	2001.614	-2990	2001.614	-3052.5
2001.615	-3235	2001.615	-2240	2001.615	-2862.5	2001.615	-2972.5
2001.616	-3185	2001.616	-2142.5	2001.616	-2880	2001.616	-3040
2001.617	-3127.5	2001.617	-2127.5	2001.617	-2790	2001.617	-3037.5
2001.618	-2987.5	2001.618	-2120	2001.618	-2827.5	2001.618	-2982.5
2001.619	-2945	2001.619	-2032.5	2001.619	-2650	2001.619	-3042.5
2001.62	-2860	2001.62	-1985	2001.62	-2687.5	2001.62	-2997.5
2001.621	-2762.5	2001.621	-1927.5	2001.621	-2582.5	2001.621	-3037.5
2001.622	-2655	2001.622	-1790	2001.622	-2495	2001.622	-2902.5
2001.623	-2555	2001.623	-1630	2001.623	-2425	2001.623	-2922.5
2001.624	-2545	2001.624	-1572.5	2001.624	-2380	2001.624	-2917.5
2001.625	-2505	2001.625	-1425	2001.625	-2387.5	2001.625	-2837.5
2001.626	-2457.5	2001.626	-1435	2001.626	-2240	2001.626	-2740
2001.627	-2372.5	2001.627	-1355	2001.627	-2142.5	2001.627	-2602.5
2001.628	-2270	2001.628	-1245	2001.628	-1930	2001.628	-2365
2001.629	-2197.5	2001.629	-1155	2001.629	-1902.5	2001.629	-2190
2001.63	-2112.5	2001.63	-1110	2001.63	-1797.5	2001.63	-2015
2001.631	-2037.5	2001.631	-1102.5	2001.631	-1670	2001.631	-1907.5
2001.632	-1957.5	2001.632	-1100	2001.632	-1630	2001.632	-1825
2001.633	-1970	2001.633	-1025	2001.633	-1570	2001.633	-1697.5
2001.634	-1912.5	2001.634	-970	2001.634	-1560	2001.634	-1665
2001.635	-1957.5	2001.635	-870	2001.635	-1627.5	2001.635	-1605
2001.636	-1937.5	2001.636	-890	2001.636	-1592.5	2001.636	-1610
2001.637	-1895	2001.637	-817.5	2001.637	-1525	2001.637	-1725
2001.638	-1892.5	2001.638	-890	2001.638	-1655	2001.638	-1747.5
2001.639	-1885	2001.639	-865	2001.639	-1537.5	2001.639	-1850
2001.64	-1865	2001.64	-840	2001.64	-1650	2001.64	-1895
2001.641	-1875	2001.641	-827.5	2001.641	-1632.5	2001.641	-1975
2001.642	-1852.5	2001.642	-812.5	2001.642	-1672.5	2001.642	-2157.5
2001.643	-2160	2001.643	-1152.5	2001.643	-2032.5	2001.643	-2410
2001.644	-2955	2001.644	-1935	2001.644	-2777.5	2001.644	-3107.5
2001.645	-3572.5	2001.645	-2815	2001.645	-3085	2001.645	-3277.5
2001.646	-2875	2001.646	-2540	2001.646	-2107.5	2001.646	-1922.5
2001.647	-1507.5	2001.647	-2710	2001.647	-210	2001.647	225
2001.648	2820	2001.648	-687.5	2001.648	5012.5	2001.648	4532.5
2001.649	11112.5	2001.649	5117.5	2001.649	14187.5	2001.649	12390
2001.65	22887.5	2001.65	15717.5	2001.65	25952.5	2001.65	22442.5
2001.651	34260	2001.651	29387.5	2001.651	36087.5	2001.651	30287.5
2001.652	42742.5	2001.652	42450	2001.652	43915	2001.652	35825
2001.653	45257.5	2001.653	55290	2001.653	51480	2001.653	43060
2001.654	36507.5	2001.654	58257.5	2001.654	50490	2001.654	50447.5
2001.655	39962.5	2001.655	54807.5	2001.655	41025	2001.655	53872.5
2001.656	52060	2001.656	-1855	2001.656	21740	2001.656	36515
2001.657	-14182.5	2001.657	-13307.5	2001.657	-19247.5	2001.657	-13595
2001.658	-4112.5	2001.658	-7720	2001.658	-6295	2001.658	-5125
2001.659	1472.5	2001.659	-3722.5	2001.659	-2130	2001.659	472.5
2001.66	5887.5	2001.66	127.5	2001.66	1880	2001.66	5202.5
2001.661	9342.5	2001.661	3275	2001.661	5492.5	2001.661	9242.5
2001.662	11307.5	2001.662	4922.5	2001.662	7677.5	2001.662	12082.5
2001.663	11910	2001.663	5182.5	2001.663	8882.5	2001.663	13857.5
2001.664	13345	2001.664	6235	2001.664	10632.5	2001.664	16445
2001.665	14882.5	2001.665	7282.5	2001.665	12435	2001.665	19075
2001.666	16397.5	2001.666	8537.5	2001.666	14130	2001.666	21732.5
2001.667	17917.5	2001.667	9942.5	2001.667	15877.5	2001.667	24005
2001.668	19297.5	2001.668	11420	2001.668	17100	2001.668	25680
2001.669	20517.5	2001.669	13152.5	2001.669	18140	2001.669	26692.5
2001.67	21540	2001.67	15057.5	2001.67	18942.5	2001.67	27277.5
2001.671	22290	2001.671	16967.5	2001.671	19652.5	2001.671	27395
2001.672	22685	2001.672	18725	2001.672	20077.5	2001.672	27075
2001.673	22870	2001.673	19997.5	2001.673	20427.5	2001.673	26650
2001.674	22695	2001.674	20800	2001.674	20355	2001.674	25982.5
2001.675	22385	2001.675	21302.5	2001.675	20312.5	2001.675	25160
2001.676	21902.5	2001.676	21402.5	2001.676	20047.5	2001.676	24190
2001.677	21350	2001.677	21217.5	2001.677	19705	2001.677	23247.5
2001.678	20742.5	2001.678	20805	2001.678	19277.5	2001.678	22330
2001.679	19975	2001.679	20260	2001.679	18782.5	2001.679	21242.5
2001.68	19202.5	2001.68	19685	2001.68	18215	2001.68	20252.5
2001.681	18387.5	2001.681	19007.5	2001.681	17622.5	2001.681	19295
2001.682	17602.5	2001.682	18357.5	2001.682	16905	2001.682	18387.5
2001.683	16860	2001.683	17632.5	2001.683	16242.5	2001.683	17502.5
2001.684	16115	2001.684	16812.5	2001.684	15650	2001.684	16672.5
2001.685	15427.5	2001.685	16215	2001.685	14980	2001.685	15945
2001.686	14752.5	2001.686	15447.5	2001.686	14592.5	2001.686	15382.5
2001.687	14097.5	2001.687	14762.5	2001.687	14047.5	2001.687	14715
2001.688	13457.5	2001.688	14115	2001.688	13532.5	2001.688	14105
2001.689	12857.5	2001.689	13552.5	2001.689	13010	2001.689	13605
2001.69	12227.5	2001.69	12775	2001.69	12572.5	2001.69	13087.5
2001.691	11685	2001.691	12257.5	2001.691	12090	2001.691	12537.5
2001.692	11095	2001.692	11597.5	2001.692	11640	2001.692	12015
2001.693	10590	2001.693	11055	2001.693	11227.5	2001.693	11537.5
2001.694	10032.5	2001.694	10582.5	2001.694	10735	2001.694	10950
2001.695	9492.5	2001.695	10125	2001.695	10252.5	2001.695	10447.5
2001.696	8975	2001.696	9570	2001.696	9812.5	2001.696	9800
2001.697	8532.5	2001.697	8935	2001.697	9312.5	2001.697	9310
2001.698	8070	2001.698	8392.5	2001.698	8735	2001.698	8762.5
2001.699	7580	2001.699	8005	2001.699	8497.5	2001.699	8265
2001.7	7237.5	2001.7	7530	2001.7	8035	2001.7	7727.5
2001.701	6827.5	2001.701	7157.5	2001.701	7670	2001.701	7250
2001.702	6457.5	2001.702	6767.5	2001.702	7350	2001.702	6850
2001.703	6167.5	2001.703	6375	2001.703	7110	2001.703	6517.5
2001.704	5880	2001.704	6137.5	2001.704	6880	2001.704	6220
2001.705	5577.5	2001.705	5885	2001.705	6705	2001.705	5940
2001.706	5287.5	2001.706	5510	2001.706	6402.5	2001.706	5745
2001.707	5015	2001.707	5210	2001.707	6247.5	2001.707	5495
2001.708	4852.5	2001.708	4945	2001.708	6107.5	2001.708	5440
2001.709	4575	2001.709	4685	2001.709	5947.5	2001.709	5300
2001.71	4415	2001.71	4487.5	2001.71	5767.5	2001.71	5150
2001.711	4150	2001.711	4187.5	2001.711	5665	2001.711	4950
2001.712	3900	2001.712	3975	2001.712	5457.5	2001.712	4755
2001.713	3690	2001.713	3742.5	2001.713	5325	2001.713	4565
2001.714	3450	2001.714	3535	2001.714	5102.5	2001.714	4300
2001.715	3270	2001.715	3272.5	2001.715	4872.5	2001.715	4112.5
2001.716	3050	2001.716	3107.5	2001.716	4677.5	2001.716	3790
2001.717	2852.5	2001.717	2815	2001.717	4455	2001.717	3515
2001.718	2550	2001.718	2552.5	2001.718	4187.5	2001.718	3175
2001.719	2380	2001.719	2350	2001.719	3962.5	2001.719	2900
2001.72	2207.5	2001.72	2162.5	2001.72	3765	2001.72	2622.5
2001.721	1970	2001.721	1952.5	2001.721	3590	2001.721	2330
2001.722	1740	2001.722	1807.5	2001.722	3300	2001.722	2072.5
2001.723	1572.5	2001.723	1592.5	2001.723	3107.5	2001.723	1815
2001.724	1320	2001.724	1427.5	2001.724	2842.5	2001.724	1592.5
2001.725	1155	2001.725	1292.5	2001.725	2735	2001.725	1427.5
2001.726	1007.5	2001.726	1185	2001.726	2680	2001.726	1342.5
2001.727	790	2001.727	965	2001.727	2482.5	2001.727	1217.5
2001.728	655	2001.728	832.5	2001.728	2450	2001.728	1137.5
2001.729	437.5	2001.729	705	2001.729	2260	2001.729	1057.5
2001.73	280	2001.73	635	2001.73	2067.5	2001.73	1020
2001.731	117.5	2001.731	477.5	2001.731	2012.5	2001.731	942.5
2001.732	-80	2001.732	345	2001.732	1740	2001.732	767.5
2001.733	-262.5	2001.733	315	2001.733	1625	2001.733	680
2001.734	-465	2001.734	207.5	2001.734	1405	2001.734	475
2001.735	-675	2001.735	7.5	2001.735	1107.5	2001.735	212.5
2001.736	-930	2001.736	-72.5	2001.736	852.5	2001.736	-72.5
2001.737	-1220	2001.737	-320	2001.737	645	2001.737	-387.5
2001.738	-1417.5	2001.738	-420	2001.738	375	2001.738	-627.5
2001.739	-1572.5	2001.739	-617.5	2001.739	137.5	2001.739	-887.5
2001.74	-1747.5	2001.74	-677.5	2001.74	-110	2001.74	-1167.5
2001.741	-2027.5	2001.741	-827.5	2001.741	-450	2001.741	-1442.5
2001.742	-2187.5	2001.742	-935	2001.742	-687.5	2001.742	-1722.5
2001.743	-2302.5	2001.743	-1005	2001.743	-890	2001.743	-1870
2001.744	-2435	2001.744	-1097.5	2001.744	-1005	2001.744	-2047.5
2001.745	-2600	2001.745	-1235	2001.745	-1052.5	2001.745	-2127.5
2001.746	-2792.5	2001.746	-1425	2001.746	-1350	2001.746	-2282.5
2001.747	-2920	2001.747	-1395	2001.747	-1277.5	2001.747	-2275
2001.748	-3047.5	2001.748	-1555	2001.748	-1442.5	2001.748	-2352.5
2001.749	-3117.5	2001.749	-1635	2001.749	-1545	2001.749	-2380
2001.75	-3222.5	2001.75	-1647.5	2001.75	-1580	2001.75	-2412.5
2001.751	-3272.5	2001.751	-1727.5	2001.751	-1742.5	2001.751	-2412.5
2001.752	-3385	2001.752	-1840	2001.752	-1760	2001.752	-2485
2001.753	-3452.5	2001.753	-1967.5	2001.753	-1855	2001.753	-2550
2001.754	-3610	2001.754	-1997.5	2001.754	-2032.5	2001.754	-2600
2001.755	-3665	2001.755	-2112.5	2001.755	-2247.5	2001.755	-2712.5
2001.756	-3810	2001.756	-2172.5	2001.756	-2365	2001.756	-2935
2001.757	-3902.5	2001.757	-2285	2001.757	-2570	2001.757	-3070
2001.758	-4002.5	2001.758	-2445	2001.758	-2700	2001.758	-3290
2001.759	-4085	2001.759	-2415	2001.759	-2832.5	2001.759	-3452.5
2001.76	-4165	2001.76	-2615	2001.76	-3037.5	2001.76	-3627.5
2001.761	-4217.5	2001.761	-2612.5	2001.761	-3072.5	2001.761	-3740
2001.762	-4285	2001.762	-2772.5	2001.762	-3240	2001.762	-3867.5
2001.763	-4297.5	2001.763	-2805	2001.763	-3252.5	2001.763	-3900
2001.764	-4352.5	2001.764	-2910	2001.764	-3267.5	2001.764	-4020
2001.765	-4372.5	2001.765	-3027.5	2001.765	-3305	2001.765	-4007.5
2001.766	-4415	2001.766	-2940	2001.766	-3322.5	2001.766	-3955
2001.767	-4392.5	2001.767	-2970	2001.767	-3372.5	2001.767	-3947.5
2001.768	-4432.5	2001.768	-2880	2001.768	-3442.5	2001.768	-3907.5
2001.769	-4420	2001.769	-2957.5	2001.769	-3365	2001.769	-3850
2001.77	-4417.5	2001.77	-2915	2001.77	-3455	2001.77	-3777.5
2001.771	-4462.5	2001.771	-2880	2001.771	-3380	2001.771	-3705
2001.772	-4435	2001.772	-2895	2001.772	-3342.5	2001.772	-3670
2001.773	-4422.5	2001.773	-2885	2001.773	-3410	2001.773	-3615
2001.774	-4485	2001.774	-2967.5	2001.774	-3437.5	2001.774	-3657.5
2001.775	-4512.5	2001.775	-3010	2001.775	-3507.5	2001.775	-3720
2001.776	-4517.5	2001.776	-3025	2001.776	-3655	2001.776	-3777.5
2001.777	-4477.5	2001.777	-3077.5	2001.777	-3667.5	2001.777	-3877.5
2001.778	-4562.5	2001.778	-3190	2001.778	-3692.5	2001.778	-3940
2001.779	-4555	2001.779	-3197.5	2001.779	-3740	2001.779	-4127.5
2001.78	-4527.5	2001.78	-3262.5	2001.78	-3812.5	2001.78	-4207.5
2001.781	-4570	2001.781	-3335	2001.781	-3907.5	2001.781	-4337.5
2001.782	-4480	2001.782	-3352.5	2001.782	-3847.5	2001.782	-4300
2001.783	-4422.5	2001.783	-3337.5	2001.783	-3832.5	2001.783	-4315
2001.784	-4370	2001.784	-3367.5	2001.784	-3845	2001.784	-4295
2001.785	-4342.5	2001.785	-3362.5	2001.785	-3747.5	2001.785	-4282.5
2001.786	-4370	2001.786	-3350	2001.786	-3790	2001.786	-4210
2001.787	-4385	2001.787	-3340	2001.787	-3842.5	2001.787	-4142.5
2001.788	-4362.5	2001.788	-3302.5	2001.788	-3720	2001.788	-4042.5
2001.789	-4302.5	2001.789	-3235	2001.789	-3787.5	2001.789	-3960
2001.79	-4350	2001.79	-3182.5	2001.79	-3752.5	2001.79	-3902.5
2001.791	-4332.5	2001.791	-3015	2001.791	-3750	2001.791	-3820
2001.792	-4282.5	2001.792	-3032.5	2001.792	-3632.5	2001.792	-3782.5
2001.793	-4285	2001.793	-3002.5	2001.793	-3617.5	2001.793	-3755
2001.794	-4267.5	2001.794	-3035	2001.794	-3615	2001.794	-3725
2001.795	-4185	2001.795	-3035	2001.795	-3630	2001.795	-3722.5
2001.796	-4202.5	2001.796	-3135	2001.796	-3670	2001.796	-3792.5
2001.797	-4220	2001.797	-3150	2001.797	-3762.5	2001.797	-3885
2001.798	-4187.5	2001.798	-3152.5	2001.798	-3767.5	2001.798	-3980
2001.799	-4220	2001.799	-3225	2001.799	-3795	2001.799	-4060
2001.8	-4237.5	2001.8	-3185	2001.8	-3857.5	2001.8	-4107.5
2001.801	-4237.5	2001.801	-3175	2001.801	-3982.5	2001.801	-4245
2001.802	-4220	2001.802	-3197.5	2001.802	-3982.5	2001.802	-4337.5
2001.803	-4185	2001.803	-3102.5	2001.803	-3922.5	2001.803	-4357.5
2001.804	-4177.5	2001.804	-3110	2001.804	-3977.5	2001.804	-4382.5
2001.805	-4117.5	2001.805	-3072.5	2001.805	-3982.5	2001.805	-4250
2001.806	-4025	2001.806	-3017.5	2001.806	-3817.5	2001.806	-4175
2001.807	-3995	2001.807	-3065	2001.807	-3695	2001.807	-3995
2001.808	-3990	2001.808	-3007.5	2001.808	-3665	2001.808	-3857.5
2001.809	-3937.5	2001.809	-3025	2001.809	-3670	2001.809	-3802.5
2001.81	-3930	2001.81	-3020	2001.81	-3550	2001.81	-3717.5
2001.811	-3827.5	2001.811	-2970	2001.811	-3472.5	2001.811	-3625
2001.812	-3825	2001.812	-2997.5	2001.812	-3482.5	2001.812	-3550
2001.813	-3802.5	2001.813	-2915	2001.813	-3497.5	2001.813	-3487.5
2001.814	-3775	2001.814	-2897.5	2001.814	-3432.5	2001.814	-3482.5
2001.815	-3782.5	2001.815	-2910	2001.815	-3382.5	2001.815	-3485
2001.816	-3802.5	2001.816	-2920	2001.816	-3502.5	2001.816	-3600
2001.817	-3800	2001.817	-2875	2001.817	-3540	2001.817	-3610
2001.818	-3822.5	2001.818	-2972.5	2001.818	-3657.5	2001.818	-3792.5
2001.819	-3875	2001.819	-2957.5	2001.819	-3730	2001.819	-3945
2001.82	-3845	2001.82	-2897.5	2001.82	-3755	2001.82	-4020
2001.821	-3865	2001.821	-2862.5	2001.821	-3815	2001.821	-4067.5
2001.822	-3845	2001.822	-2877.5	2001.822	-3827.5	2001.822	-4180
2001.823	-3817.5	2001.823	-2792.5	2001.823	-3800	2001.823	-4192.5
2001.824	-3805	2001.824	-2750	2001.824	-3805	2001.824	-4167.5
2001.825	-3777.5	2001.825	-2750	2001.825	-3805	2001.825	-4167.5
2001.826	-3727.5	2001.826	-2682.5	2001.826	-3735	2001.826	-4075
2001.827	-3680	2001.827	-2582.5	2001.827	-3640	2001.827	-3912.5
2001.828	-3667.5	2001.828	-2602.5	2001.828	-3660	2001.828	-3760
2001.829	-3590	2001.829	-2645	2001.829	-3497.5	2001.829	-3755
2001.83	-3607.5	2001.83	-2667.5	2001.83	-3540	2001.83	-3612.5
2001.831	-3592.5	2001.831	-2685	2001.831	-3445	2001.831	-3557.5
2001.832	-3510	2001.832	-2757.5	2001.832	-3395	2001.832	-3477.5
2001.833	-3515	2001.833	-2647.5	2001.833	-3425	2001.833	-3395
2001.834	-3477.5	2001.834	-2665	2001.834	-3310	2001.834	-3375
2001.835	-3462.5	2001.835	-2712.5	2001.835	-3327.5	2001.835	-3410
2001.836	-3422.5	2001.836	-2672.5	2001.836	-3400	2001.836	-3495
2001.837	-3422.5	2001.837	-2635	2001.837	-3362.5	2001.837	-3492.5
2001.838	-3375	2001.838	-2655	2001.838	-3425	2001.838	-3565
2001.839	-3367.5	2001.839	-2710	2001.839	-3467.5	2001.839	-3685
2001.84	-3345	2001.84	-2675	2001.84	-3515	2001.84	-3672.5
2001.841	-3310	2001.841	-2660	2001.841	-3552.5	2001.841	-3822.5
2001.842	-3312.5	2001.842	-2632.5	2001.842	-3465	2001.842	-3865
2001.843	-3302.5	2001.843	-2605	2001.843	-3535	2001.843	-3890
2001.844	-3272.5	2001.844	-2552.5	2001.844	-3375	2001.844	-3942.5
2001.845	-3222.5	2001.845	-2530	2001.845	-3420	2001.845	-3845
2001.846	-3190	2001.846	-2382.5	2001.846	-3392.5	2001.846	-3787.5
2001.847	-3155	2001.847	-2287.5	2001.847	-3360	2001.847	-3687.5
2001.848	-3142.5	2001.848	-2245	2001.848	-3265	2001.848	-3582.5
2001.849	-3070	2001.849	-2300	2001.849	-3190	2001.849	-3440
2001.85	-3007.5	2001.85	-2310	2001.85	-3032.5	2001.85	-3210
2001.851	-2945	2001.851	-2390	2001.851	-2967.5	2001.851	-3100
2001.852	-2880	2001.852	-2345	2001.852	-2850	2001.852	-3072.5
2001.853	-2835	2001.853	-2320	2001.853	-2820	2001.853	-2935
2001.854	-2772.5	2001.854	-2305	2001.854	-2815	2001.854	-2915
2001.855	-2757.5	2001.855	-2322.5	2001.855	-2825	2001.855	-2905
2001.856	-2737.5	2001.856	-2330	2001.856	-2880	2001.856	-3020
2001.857	-2745	2001.857	-2247.5	2001.857	-2892.5	2001.857	-3180
2001.858	-2805	2001.858	-2330	2001.858	-3007.5	2001.858	-3255
2001.859	-2865	2001.859	-2355	2001.859	-3085	2001.859	-3405
2001.86	-2850	2001.86	-2322.5	2001.86	-3110	2001.86	-3490
2001.861	-2877.5	2001.861	-2290	2001.861	-3167.5	2001.861	-3615
2001.862	-2880	2001.862	-2340	2001.862	-3212.5	2001.862	-3672.5
2001.863	-2902.5	2001.863	-2292.5	2001.863	-3222.5	2001.863	-3740
2001.864	-2865	2001.864	-2255	2001.864	-3185	2001.864	-3807.5
2001.865	-2890	2001.865	-2262.5	2001.865	-3257.5	2001.865	-3722.5
2001.866	-2807.5	2001.866	-2222.5	2001.866	-3052.5	2001.866	-3622.5
2001.867	-2815	2001.867	-2217.5	2001.867	-3077.5	2001.867	-3590
2001.868	-2772.5	2001.868	-2230	2001.868	-2965	2001.868	-3515
2001.869	-2755	2001.869	-2267.5	2001.869	-2937.5	2001.869	-3452.5
2001.87	-2747.5	2001.87	-2282.5	2001.87	-2825	2001.87	-3297.5
2001.871	-2737.5	2001.871	-2345	2001.871	-2907.5	2001.871	-3220
2001.872	-2602.5	2001.872	-2250	2001.872	-2737.5	2001.872	-3055
2001.873	-2552.5	2001.873	-2267.5	2001.873	-2735	2001.873	-3052.5
2001.874	-2552.5	2001.874	-2227.5	2001.874	-2710	2001.874	-2982.5
2001.875	-2570	2001.875	-2222.5	2001.875	-2695	2001.875	-3132.5
2001.876	-2542.5	2001.876	-2290	2001.876	-2750	2001.876	-3167.5
2001.877	-2565	2001.877	-2220	2001.877	-2827.5	2001.877	-3190
2001.878	-2590	2001.878	-2252.5	2001.878	-2852.5	2001.878	-3337.5
2001.879	-2622.5	2001.879	-2282.5	2001.879	-2990	2001.879	-3490
2001.88	-2630	2001.88	-2270	2001.88	-2935	2001.88	-3547.5
2001.881	-2642.5	2001.881	-2295	2001.881	-2997.5	2001.881	-3650
2001.882	-2635	2001.882	-2225	2001.882	-3097.5	2001.882	-3662.5
2001.883	-2620	2001.883	-2250	2001.883	-3025	2001.883	-3685
2001.884	-2560	2001.884	-2225	2001.884	-3052.5	2001.884	-3645
2001.885	-2580	2001.885	-2300	2001.885	-2955	2001.885	-3650
2001.886	-2492.5	2001.886	-2290	2001.886	-2945	2001.886	-3542.5
2001.887	-2490	2001.887	-2290	2001.887	-2860	2001.887	-3495
2001.888	-2500	2001.888	-2257.5	2001.888	-2780	2001.888	-3400
2001.889	-2500	2001.889	-2280	2001.889	-2850	2001.889	-3325
2001.89	-2490	2001.89	-2270	2001.89	-2780	2001.89	-3295
2001.891	-2512.5	2001.891	-2330	2001.891	-2625	2001.891	-3200
2001.892	-2487.5	2001.892	-2232.5	2001.892	-2645	2001.892	-3185
2001.893	-2450	2001.893	-2280	2001.893	-2647.5	2001.893	-3117.5
2001.894	-2455	2001.894	-2182.5	2001.894	-2612.5	2001.894	-3080
2001.895	-2462.5	2001.895	-2155	2001.895	-2612.5	2001.895	-3175
2001.896	-2465	2001.896	-2220	2001.896	-2627.5	2001.896	-3235
2001.897	-2450	2001.897	-2180	2001.897	-2785	2001.897	-3325
2001.898	-2417.5	2001.898	-2210	2001.898	-2682.5	2001.898	-3382.5
2001.899	-2425	2001.899	-2287.5	2001.899	-2790	2001.899	-3435
2001.9	-2390	2001.9	-2275	2001.9	-2805	2001.9	-3490
2001.901	-2380	2001.901	-2245	2001.901	-2810	2001.901	-3575
2001.902	-2350	2001.902	-2225	2001.902	-2772.5	2001.902	-3527.5
2001.903	-2307.5	2001.903	-2202.5	2001.903	-2760	2001.903	-3590
2001.904	-2230	2001.904	-2155	2001.904	-2780	2001.904	-3610
2001.905	-2195	2001.905	-2172.5	2001.905	-2827.5	2001.905	-3567.5
2001.906	-2177.5	2001.906	-2112.5	2001.906	-2660	2001.906	-3490
2001.907	-2082.5	2001.907	-2132.5	2001.907	-2612.5	2001.907	-3390
2001.908	-2102.5	2001.908	-2112.5	2001.908	-2535	2001.908	-3280
2001.909	-2077.5	2001.909	-2057.5	2001.909	-2480	2001.909	-3252.5
2001.91	-2117.5	2001.91	-2132.5	2001.91	-2530	2001.91	-3242.5
2001.911	-2095	2001.911	-2060	2001.911	-2455	2001.911	-3142.5
2001.912	-2027.5	2001.912	-1992.5	2001.912	-2482.5	2001.912	-3050
2001.913	-2022.5	2001.913	-1865	2001.913	-2447.5	2001.913	-3045
2001.914	-2037.5	2001.914	-1902.5	2001.914	-2402.5	2001.914	-3030
2001.915	-2020	2001.915	-1860	2001.915	-2410	2001.915	-3050
2001.916	-1987.5	2001.916	-1910	2001.916	-2495	2001.916	-3105
2001.917	-1960	2001.917	-1967.5	2001.917	-2585	2001.917	-3232.5
2001.918	-1982.5	2001.918	-1975	2001.918	-2632.5	2001.918	-3302.5
2001.919	-1955	2001.919	-2057.5	2001.919	-2605	2001.919	-3280
2001.92	-1987.5	2001.92	-2050	2001.92	-2532.5	2001.92	-3402.5
2001.921	-1960	2001.921	-2072.5	2001.921	-2642.5	2001.921	-3432.5
2001.922	-1922.5	2001.922	-2015	2001.922	-2595	2001.922	-3482.5
2001.923	-1990	2001.923	-2060	2001.923	-2642.5	2001.923	-3487.5
2001.924	-1925	2001.924	-2060	2001.924	-2622.5	2001.924	-3507.5
2001.925	-1860	2001.925	-1985	2001.925	-2592.5	2001.925	-3462.5
2001.926	-1880	2001.926	-2012.5	2001.926	-2582.5	2001.926	-3352.5
2001.927	-1820	2001.927	-1997.5	2001.927	-2557.5	2001.927	-3267.5
2001.928	-1785	2001.928	-1925	2001.928	-2442.5	2001.928	-3097.5
2001.929	-1727.5	2001.929	-1945	2001.929	-2372.5	2001.929	-2995
2001.93	-1675	2001.93	-1870	2001.93	-2287.5	2001.93	-2792.5
2001.931	-1662.5	2001.931	-1872.5	2001.931	-2205	2001.931	-2755
2001.932	-1622.5	2001.932	-1812.5	2001.932	-2227.5	2001.932	-2667.5
2001.933	-1635	2001.933	-1812.5	2001.933	-2195	2001.933	-2542.5
2001.934	-1640	2001.934	-1762.5	2001.934	-2167.5	2001.934	-2567.5
2001.935	-1567.5	2001.935	-1752.5	2001.935	-2097.5	2001.935	-2567.5
2001.936	-1620	2001.936	-1767.5	2001.936	-2202.5	2001.936	-2690
2001.937	-1617.5	2001.937	-1787.5	2001.937	-2252.5	2001.937	-2702.5
2001.938	-1642.5	2001.938	-1800	2001.938	-2215	2001.938	-2835
2001.939	-1647.5	2001.939	-1885	2001.939	-2237.5	2001.939	-2875
2001.94	-1545	2001.94	-1927.5	2001.94	-2187.5	2001.94	-2860
2001.941	-1505	2001.941	-2022.5	2001.941	-2282.5	2001.941	-2887.5
2001.942	-1520	2001.942	-1960	2001.942	-2270	2001.942	-2927.5
2001.943	-1425	2001.943	-2010	2001.943	-2237.5	2001.943	-2967.5
2001.944	-1455	2001.944	-1947.5	2001.944	-2247.5	2001.944	-2952.5
2001.945	-1372.5	2001.945	-1940	2001.945	-2260	2001.945	-2797.5
2001.946	-1400	2001.946	-1847.5	2001.946	-2137.5	2001.946	-2755
2001.947	-1365	2001.947	-1850	2001.947	-2092.5	2001.947	-2695
2001.948	-1352.5	2001.948	-1805	2001.948	-1972.5	2001.948	-2530
2001.949	-1295	2001.949	-1775	2001.949	-1905	2001.949	-2450
2001.95	-1350	2001.95	-1607.5	2001.95	-1895	2001.95	-2382.5
2001.951	-1322.5	2001.951	-1520	2001.951	-1830	2001.951	-2212.5
2001.952	-1350	2001.952	-1440	2001.952	-1920	2001.952	-2262.5
2001.953	-1330	2001.953	-1450	2001.953	-1912.5	2001.953	-2197.5
2001.954	-1337.5	2001.954	-1327.5	2001.954	-1807.5	2001.954	-2117.5
2001.955	-1365	2001.955	-1377.5	2001.955	-1922.5	2001.955	-2147.5
2001.956	-1380	2001.956	-1402.5	2001.956	-1957.5	2001.956	-2175
2001.957	-1395	2001.957	-1450	2001.957	-1977.5	2001.957	-2240
2001.958	-1412.5	2001.958	-1522.5	2001.958	-2012.5	2001.958	-2377.5
2001.959	-1430	2001.959	-1580	2001.959	-2027.5	2001.959	-2420
2001.96	-1390	2001.96	-1620	2001.96	-2067.5	2001.96	-2547.5
2001.961	-1405	2001.961	-1615	2001.961	-2155	2001.961	-2640
2001.962	-1417.5	2001.962	-1637.5	2001.962	-2095	2001.962	-2585
2001.963	-1372.5	2001.963	-1607.5	2001.963	-2017.5	2001.963	-2562.5
2001.964	-1345	2001.964	-1575	2001.964	-1970	2001.964	-2595
2001.965	-1400	2001.965	-1562.5	2001.965	-2037.5	2001.965	-2547.5
2001.966	-1390	2001.966	-1535	2001.966	-1967.5	2001.966	-2535
2001.967	-1387.5	2001.967	-1440	2001.967	-1967.5	2001.967	-2480
2001.968	-1297.5	2001.968	-1422.5	2001.968	-1865	2001.968	-2285
2001.969	-1295	2001.969	-1422.5	2001.969	-1832.5	2001.969	-2147.5
2001.97	-1300	2001.97	-1340	2001.97	-1795	2001.97	-2042.5
2001.971	-1285	2001.971	-1175	2001.971	-1790	2001.971	-1975
2001.972	-1317.5	2001.972	-1245	2001.972	-1787.5	2001.972	-1917.5
2001.973	-1287.5	2001.973	-1270	2001.973	-1712.5	2001.973	-1882.5
2001.974	-1340	2001.974	-1275	2001.974	-1765	2001.974	-1900
2001.975	-1285	2001.975	-1252.5	2001.975	-1720	2001.975	-1840
2001.976	-1307.5	2001.976	-1300	2001.976	-1782.5	2001.976	-1875
2001.977	-1307.5	2001.977	-1292.5	2001.977	-1720	2001.977	-1932.5
2001.978	-1357.5	2001.978	-1422.5	2001.978	-1845	2001.978	-2095
2001.979	-1330	2001.979	-1462.5	2001.979	-1930	2001.979	-2157.5
2001.98	-1345	2001.98	-1410	2001.98	-1912.5	2001.98	-2225
2001.981	-1337.5	2001.981	-1470	2001.981	-1955	2001.981	-2305
2001.982	-1360	2001.982	-1382.5	2001.982	-1987.5	2001.982	-2340
2001.983	-1305	2001.983	-1375	2001.983	-1937.5	2001.983	-2327.5
2001.984	-1307.5	2001.984	-1355	2001.984	-2007.5	2001.984	-2320
2001.985	-1295	2001.985	-1337.5	2001.985	-1927.5	2001.985	-2265
2001.986	-1250	2001.986	-1290	2001.986	-1822.5	2001.986	-2137.5
2001.987	-1225	2001.987	-1295	2001.987	-1780	2001.987	-2112.5
2001.988	-1245	2001.988	-1332.5	2001.988	-1715	2001.988	-1950
2001.989	-1197.5	2001.989	-1175	2001.989	-1650	2001.989	-1875
2001.99	-1205	2001.99	-1262.5	2001.99	-1650	2001.99	-1747.5
2001.991	-1147.5	2001.991	-1240	2001.991	-1590	2001.991	-1700
2001.992	-1170	2001.992	-1132.5	2001.992	-1475	2001.992	-1662.5
2001.993	-1165	2001.993	-1147.5	2001.993	-1482.5	2001.993	-1600
2001.994	-1152.5	2001.994	-1197.5	2001.994	-1562.5	2001.994	-1575
2001.995	-1150	2001.995	-1200	2001.995	-1475	2001.995	-1580
2001.996	-1170	2001.996	-1242.5	2001.996	-1575	2001.996	-1610
2001.997	-1162.5	2001.997	-1210	2001.997	-1617.5	2001.997	-1717.5
2001.998	-1165	2001.998	-1282.5	2001.998	-1682.5	2001.998	-1795
2001.999	-1162.5	2001.999	-1317.5	2001.999	-1647.5	2001.999	-1835
2002	-1135	2002	-1347.5	2002	-1732.5	2002	-1890
2002.001	-1142.5	2002.001	-1382.5	2002.001	-1687.5	2002.001	-1887.5
2002.002	-1125	2002.002	-1365	2002.002	-1655	2002.002	-1972.5
2002.003	-1152.5	2002.003	-1330	2002.003	-1827.5	2002.003	-2055
2002.004	-1137.5	2002.004	-1272.5	2002.004	-1790	2002.004	-2047.5
2002.005	-1125	2002.005	-1275	2002.005	-1682.5	2002.005	-2005
2002.006	-1130	2002.006	-1242.5	2002.006	-1672.5	2002.006	-1855
2002.007	-1100	2002.007	-1245	2002.007	-1642.5	2002.007	-1795
2002.008	-1122.5	2002.008	-1160	2002.008	-1575	2002.008	-1660
2002.009	-1090	2002.009	-1167.5	2002.009	-1520	2002.009	-1545
2002.01	-1062.5	2002.01	-1217.5	2002.01	-1460	2002.01	-1455
2002.011	-1097.5	2002.011	-1222.5	2002.011	-1432.5	2002.011	-1355
2002.012	-1130	2002.012	-1262.5	2002.012	-1465	2002.012	-1310
2002.013	-1085	2002.013	-1307.5	2002.013	-1430	2002.013	-1267.5
2002.014	-1060	2002.014	-1265	2002.014	-1380	2002.014	-1257.5
2002.015	-1132.5	2002.015	-1300	2002.015	-1432.5	2002.015	-1302.5
2002.016	-1065	2002.016	-1287.5	2002.016	-1507.5	2002.016	-1320
2002.017	-1200	2002.017	-1307.5	2002.017	-1532.5	2002.017	-1540
2002.018	-1405	2002.018	-1635	2002.018	-1712.5	2002.018	-1780
2002.019	-1570	2002.019	-1785	2002.019	-2005	2002.019	-1972.5
2002.02	-1622.5	2002.02	-1875	2002.02	-2017.5	2002.02	-2105
2002.021	-2020	2002.021	-2200	2002.021	-2455	2002.021	-2502.5
2002.022	-2367.5	2002.022	-2427.5	2002.022	-2800	2002.022	-2802.5
2002.023	-2517.5	2002.023	-2645	2002.023	-2990	2002.023	-2997.5
2002.024	-2167.5	2002.024	-2417.5	2002.024	-2760	2002.024	-2667.5
2002.025	-1680	2002.025	-1955	2002.025	-2307.5	2002.025	-2275
2002.026	-1110	2002.026	-1480	2002.026	-1782.5	2002.026	-1735
2002.027	-805	2002.027	-1175	2002.027	-1355	2002.027	-1332.5
2002.028	-492.5	2002.028	-830	2002.028	-997.5	2002.028	-987.5
2002.029	15	2002.029	-420	2002.029	-462.5	2002.029	-400
2002.03	82.5	2002.03	-330	2002.03	-345	2002.03	-210
2002.031	-400	2002.031	-830	2002.031	-690	2002.031	-565
2002.032	-245	2002.032	-692.5	2002.032	-635	2002.032	-450
2002.033	-685	2002.033	-1122.5	2002.033	-952.5	2002.033	-740
2002.034	-1740	2002.034	-2160	2002.034	-1885	2002.034	-1612.5
2002.035	-2575	2002.035	-2887.5	2002.035	-2727.5	2002.035	-2437.5
2002.036	-1340	2002.036	-1837.5	2002.036	-1675	2002.036	-1410
2002.037	-1142.5	2002.037	-1577.5	2002.037	-1537.5	2002.037	-1220
2002.038	-1387.5	2002.038	-1830	2002.038	-1775	2002.038	-1542.5
2002.039	-1382.5	2002.039	-1745	2002.039	-1820	2002.039	-1600
2002.04	-1250	2002.04	-1647.5	2002.04	-1697.5	2002.04	-1590
2002.041	-1650	2002.041	-2005	2002.041	-2147.5	2002.041	-2055
2002.042	-1862.5	2002.042	-2205	2002.042	-2432.5	2002.042	-2187.5
2002.043	-1870	2002.043	-2220	2002.043	-2497.5	2002.043	-2250
2002.044	-2062.5	2002.044	-2405	2002.044	-2617.5	2002.044	-2527.5
2002.045	-2817.5	2002.045	-3105	2002.045	-3225	2002.045	-3165
2002.046	-3147.5	2002.046	-3467.5	2002.046	-3550	2002.046	-3415
2002.047	-3472.5	2002.047	-3790	2002.047	-3885	2002.047	-3617.5
2002.048	-3635	2002.048	-3977.5	2002.048	-3955	2002.048	-3662.5
2002.049	-3660	2002.049	-4027.5	2002.049	-3970	2002.049	-3615
2002.05	-3607.5	2002.05	-3962.5	2002.05	-3900	2002.05	-3490
2002.051	-3480	2002.051	-3925	2002.051	-3762.5	2002.051	-3352.5
2002.052	-3437.5	2002.052	-3852.5	2002.052	-3670	2002.052	-3202.5
2002.053	-3337.5	2002.053	-3737.5	2002.053	-3567.5	2002.053	-3152.5
2002.054	-3282.5	2002.054	-3695	2002.054	-3465	2002.054	-3062.5
2002.055	-3200	2002.055	-3617.5	2002.055	-3375	2002.055	-2965
2002.056	-3137.5	2002.056	-3577.5	2002.056	-3392.5	2002.056	-3005
2002.057	-3087.5	2002.057	-3595	2002.057	-3435	2002.057	-3012.5
2002.058	-3000	2002.058	-3527.5	2002.058	-3442.5	2002.058	-2985
2002.059	-2955	2002.059	-3435	2002.059	-3317.5	2002.059	-3075
2002.06	-2805	2002.06	-3262.5	2002.06	-3250	2002.06	-2945
2002.061	-2732.5	2002.061	-3242.5	2002.061	-3180	2002.061	-2992.5
2002.062	-2665	2002.062	-3185	2002.062	-3082.5	2002.062	-2950
2002.063	-2617.5	2002.063	-3080	2002.063	-3052.5	2002.063	-2945
2002.064	-2582.5	2002.064	-3092.5	2002.064	-2982.5	2002.064	-2912.5
2002.065	-2507.5	2002.065	-2997.5	2002.065	-2970	2002.065	-2742.5
2002.066	-2432.5	2002.066	-2960	2002.066	-2887.5	2002.066	-2597.5
2002.067	-2372.5	2002.067	-2862.5	2002.067	-2737.5	2002.067	-2477.5
2002.068	-2237.5	2002.068	-2825	2002.068	-2585	2002.068	-2357.5
2002.069	-2200	2002.069	-2775	2002.069	-2490	2002.069	-2167.5
2002.07	-2207.5	2002.07	-2735	2002.07	-2390	2002.07	-2047.5
2002.071	-2152.5	2002.071	-2702.5	2002.071	-2347.5	2002.071	-1865
2002.072	-2145	2002.072	-2687.5	2002.072	-2345	2002.072	-1880
2002.073	-2125	2002.073	-2652.5	2002.073	-2210	2002.073	-1832.5
2002.074	-2085	2002.074	-2627.5	2002.074	-2280	2002.074	-1780
2002.075	-2077.5	2002.075	-2535	2002.075	-2222.5	2002.075	-1747.5
2002.076	-2045	2002.076	-2612.5	2002.076	-2277.5	2002.076	-1830
2002.077	-2045	2002.077	-2620	2002.077	-2310	2002.077	-1825
2002.078	-2092.5	2002.078	-2552.5	2002.078	-2342.5	2002.078	-1962.5
2002.079	-2152.5	2002.079	-2700	2002.079	-2457.5	2002.079	-2097.5
2002.08	-2232.5	2002.08	-2595	2002.08	-2502.5	2002.08	-2290
2002.081	-2725	2002.081	-3062.5	2002.081	-3015	2002.081	-2767.5
2002.082	-3620	2002.082	-3920	2002.082	-3857.5	2002.082	-3640
2002.083	-3932.5	2002.083	-4435	2002.083	-3945	2002.083	-3422.5
2002.084	-2905	2002.084	-4250	2002.084	-2585	2002.084	-1632.5
2002.085	-802.5	2002.085	-3972.5	2002.085	102.5	2002.085	1090
2002.086	4542.5	2002.086	-1065	2002.086	6472.5	2002.086	6482.5
2002.087	14167.5	2002.087	6572.5	2002.087	16972.5	2002.087	15820
2002.088	26177.5	2002.088	18210	2002.088	28292.5	2002.088	25385
2002.089	37015	2002.089	32530	2002.089	37830	2002.089	32750
2002.09	44332.5	2002.09	45357.5	2002.09	45400	2002.09	38230
2002.091	42045	2002.091	55887.5	2002.091	50810	2002.091	45412.5
2002.092	36617.5	2002.092	55717.5	2002.092	46555	2002.092	51940
2002.093	44807.5	2002.093	50185	2002.093	37422.5	2002.093	55362.5
2002.094	30972.5	2002.094	-18787.5	2002.094	-19012.5	2002.094	-11425
2002.095	-11135	2002.095	-12742.5	2002.095	-14610	2002.095	-11115
2002.096	-2090	2002.096	-7832.5	2002.096	-5207.5	2002.096	-2917.5
2002.097	2455	2002.097	-4287.5	2002.097	-1460	2002.097	1842.5
2002.098	6902.5	2002.098	-245	2002.098	2770	2002.098	6607.5
2002.099	9822.5	2002.099	2335	2002.099	6057.5	2002.099	10222.5
2002.1	11155	2002.1	3512.5	2002.1	7740	2002.1	12565
2002.101	11880	2002.101	3827.5	2002.101	8912.5	2002.101	14490
2002.102	13402.5	2002.102	5000	2002.102	10697.5	2002.102	17102.5
2002.103	14887.5	2002.103	6107.5	2002.103	12320	2002.103	19742.5
2002.104	16442.5	2002.104	7330	2002.104	14035	2002.104	22212.5
2002.105	18007.5	2002.105	8887.5	2002.105	15565	2002.105	24310
2002.106	19342.5	2002.106	10400	2002.106	16752.5	2002.106	25770
2002.107	20567.5	2002.107	12195	2002.107	17655	2002.107	26655
2002.108	21460	2002.108	14125	2002.108	18465	2002.108	26985
2002.109	22065	2002.109	15907.5	2002.109	18925	2002.109	26955
2002.11	22400	2002.11	17412.5	2002.11	19467.5	2002.11	26685
2002.111	22447.5	2002.111	18600	2002.111	19782.5	2002.111	26175
2002.112	22245	2002.112	19292.5	2002.112	19807.5	2002.112	25472.5
2002.113	21965	2002.113	19635	2002.113	19712.5	2002.113	24772.5
2002.114	21462.5	2002.114	19657.5	2002.114	19432.5	2002.114	23872.5
2002.115	20895	2002.115	19467.5	2002.115	19090	2002.115	22970
2002.116	20177.5	2002.116	19082.5	2002.116	18655	2002.116	21932.5
2002.117	19427.5	2002.117	18490	2002.117	18012.5	2002.117	20905
2002.118	18660	2002.118	17925	2002.118	17440	2002.118	19877.5
2002.119	17832.5	2002.119	17202.5	2002.119	16732.5	2002.119	18922.5
2002.12	17085	2002.12	16410	2002.12	16050	2002.12	17972.5
2002.121	16277.5	2002.121	15760	2002.121	15440	2002.121	17040
2002.122	15455	2002.122	15052.5	2002.122	14665	2002.122	16170
2002.123	14702.5	2002.123	14357.5	2002.123	14112.5	2002.123	15347.5
2002.124	14037.5	2002.124	13707.5	2002.124	13487.5	2002.124	14630
2002.125	13362.5	2002.125	13037.5	2002.125	12977.5	2002.125	13955
2002.126	12687.5	2002.126	12402.5	2002.126	12410	2002.126	13402.5
2002.127	12045	2002.127	11727.5	2002.127	11985	2002.127	12852.5
2002.128	11487.5	2002.128	11135	2002.128	11432.5	2002.128	12272.5
2002.129	10862.5	2002.129	10525	2002.129	10912.5	2002.129	11695
2002.13	10292.5	2002.13	9982.5	2002.13	10525	2002.13	11132.5
2002.131	9722.5	2002.131	9460	2002.131	10040	2002.131	10717.5
2002.132	9230	2002.132	8867.5	2002.132	9555	2002.132	10230
2002.133	8740	2002.133	8392.5	2002.133	9102.5	2002.133	9770
2002.134	8240	2002.134	7942.5	2002.134	8750	2002.134	9347.5
2002.135	7795	2002.135	7477.5	2002.135	8367.5	2002.135	8855
2002.136	7365	2002.136	7137.5	2002.136	7855	2002.136	8322.5
2002.137	6940	2002.137	6592.5	2002.137	7507.5	2002.137	7870
2002.138	6575	2002.138	6115	2002.138	7250	2002.138	7432.5
2002.139	6257.5	2002.139	5712.5	2002.139	6915	2002.139	7027.5
2002.14	5922.5	2002.14	5340	2002.14	6565	2002.14	6642.5
2002.141	5537.5	2002.141	4945	2002.141	6225	2002.141	6162.5
2002.142	5255	2002.142	4600	2002.142	5937.5	2002.142	5772.5
2002.143	4945	2002.143	4295	2002.143	5747.5	2002.143	5452.5
2002.144	4700	2002.144	3967.5	2002.144	5477.5	2002.144	5225
2002.145	4452.5	2002.145	3747.5	2002.145	5287.5	2002.145	4962.5
2002.146	4175	2002.146	3450	2002.146	5080	2002.146	4750
2002.147	3970	2002.147	3260	2002.147	4917.5	2002.147	4600
2002.148	3752.5	2002.148	2922.5	2002.148	4800	2002.148	4487.5
2002.149	3517.5	2002.149	2727.5	2002.149	4702.5	2002.149	4320
2002.15	3310	2002.15	2602.5	2002.15	4477.5	2002.15	4140
2002.151	3115	2002.151	2385	2002.151	4372.5	2002.151	4010
2002.152	2865	2002.152	2205	2002.152	4172.5	2002.152	3850
2002.153	2650	2002.153	2010	2002.153	4022.5	2002.153	3637.5
2002.154	2425	2002.154	1845	2002.154	3737.5	2002.154	3427.5
2002.155	2200	2002.155	1632.5	2002.155	3552.5	2002.155	3207.5
2002.156	2002.5	2002.156	1417.5	2002.156	3300	2002.156	2862.5
2002.157	1802.5	2002.157	1162.5	2002.157	3087.5	2002.157	2627.5
2002.158	1582.5	2002.158	920	2002.158	2857.5	2002.158	2275
2002.159	1405	2002.159	682.5	2002.159	2557.5	2002.159	2032.5
2002.16	1175	2002.16	505	2002.16	2377.5	2002.16	1762.5
2002.161	1002.5	2002.161	277.5	2002.161	2147.5	2002.161	1447.5
2002.162	762.5	2002.162	97.5	2002.162	1950	2002.162	1202.5
2002.163	540	2002.163	-35	2002.163	1717.5	2002.163	930
2002.164	357.5	2002.164	-262.5	2002.164	1515	2002.164	710
2002.165	130	2002.165	-350	2002.165	1350	2002.165	497.5
2002.166	-40	2002.166	-527.5	2002.166	1157.5	2002.166	322.5
2002.167	-202.5	2002.167	-582.5	2002.167	1022.5	2002.167	290
2002.168	-390	2002.168	-580	2002.168	905	2002.168	177.5
2002.169	-565	2002.169	-712.5	2002.169	735	2002.169	62.5
2002.17	-790	2002.17	-747.5	2002.17	572.5	2002.17	-112.5
2002.171	-932.5	2002.171	-865	2002.171	355	2002.171	-115
2002.172	-1160	2002.172	-897.5	2002.172	212.5	2002.172	-337.5
2002.173	-1345	2002.173	-942.5	2002.173	17.5	2002.173	-520
2002.174	-1540	2002.174	-1130	2002.174	-192.5	2002.174	-700
2002.175	-1707.5	2002.175	-1282.5	2002.175	-360	2002.175	-867.5
2002.176	-1882.5	2002.176	-1417.5	2002.176	-552.5	2002.176	-1160
2002.177	-2102.5	2002.177	-1580	2002.177	-827.5	2002.177	-1407.5
2002.178	-2305	2002.178	-1730	2002.178	-1150	2002.178	-1637.5
2002.179	-2467.5	2002.179	-1905	2002.179	-1260	2002.179	-1917.5
2002.18	-2645	2002.18	-2017.5	2002.18	-1592.5	2002.18	-2180
2002.181	-2890	2002.181	-2272.5	2002.181	-1797.5	2002.181	-2455
2002.182	-3030	2002.182	-2372.5	2002.182	-2072.5	2002.182	-2655
2002.183	-3197.5	2002.183	-2545	2002.183	-2245	2002.183	-2860
2002.184	-3305	2002.184	-2637.5	2002.184	-2457.5	2002.184	-2997.5
2002.185	-3450	2002.185	-2760	2002.185	-2450	2002.185	-3095
2002.186	-3600	2002.186	-2800	2002.186	-2617.5	2002.186	-3172.5
2002.187	-3755	2002.187	-2807.5	2002.187	-2765	2002.187	-3280
2002.188	-3822.5	2002.188	-3000	2002.188	-2865	2002.188	-3300
2002.189	-3952.5	2002.189	-3072.5	2002.189	-2990	2002.189	-3337.5
2002.19	-4037.5	2002.19	-3107.5	2002.19	-2945	2002.19	-3325
2002.191	-4115	2002.191	-3120	2002.191	-3125	2002.191	-3352.5
2002.192	-4192.5	2002.192	-3227.5	2002.192	-3250	2002.192	-3382.5
2002.193	-4272.5	2002.193	-3255	2002.193	-3317.5	2002.193	-3460
2002.194	-4352.5	2002.194	-3317.5	2002.194	-3410	2002.194	-3550
2002.195	-4467.5	2002.195	-3417.5	2002.195	-3632.5	2002.195	-3645
2002.196	-4502.5	2002.196	-3492.5	2002.196	-3762.5	2002.196	-3787.5
2002.197	-4537.5	2002.197	-3600	2002.197	-3857.5	2002.197	-3895
2002.198	-4617.5	2002.198	-3807.5	2002.198	-3967.5	2002.198	-3995
2002.199	-4687.5	2002.199	-3842.5	2002.199	-3987.5	2002.199	-4162.5
2002.2	-4692.5	2002.2	-3942.5	2002.2	-4170	2002.2	-4327.5
2002.201	-4780	2002.201	-4010	2002.201	-4317.5	2002.201	-4482.5
2002.202	-4840	2002.202	-4010	2002.202	-4350	2002.202	-4530
2002.203	-4860	2002.203	-4067.5	2002.203	-4445	2002.203	-4540
2002.204	-4825	2002.204	-4077.5	2002.204	-4425	2002.204	-4620
2002.205	-4810	2002.205	-4037.5	2002.205	-4402.5	2002.205	-4550
2002.206	-4842.5	2002.206	-4015	2002.206	-4385	2002.206	-4497.5
2002.207	-4842.5	2002.207	-4070	2002.207	-4392.5	2002.207	-4515
2002.208	-4872.5	2002.208	-3995	2002.208	-4465	2002.208	-4395
2002.209	-4890	2002.209	-4087.5	2002.209	-4512.5	2002.209	-4365
2002.21	-4860	2002.21	-4057.5	2002.21	-4550	2002.21	-4285
2002.211	-4852.5	2002.211	-4025	2002.211	-4347.5	2002.211	-4205
2002.212	-4905	2002.212	-4090	2002.212	-4452.5	2002.212	-4160
2002.213	-4927.5	2002.213	-4060	2002.213	-4460	2002.213	-4112.5
2002.214	-4962.5	2002.214	-4052.5	2002.214	-4490	2002.214	-4197.5
2002.215	-4957.5	2002.215	-4105	2002.215	-4505	2002.215	-4252.5
2002.216	-5020	2002.216	-4142.5	2002.216	-4725	2002.216	-4345
2002.217	-5040	2002.217	-4212.5	2002.217	-4775	2002.217	-4477.5
2002.218	-5040	2002.218	-4270	2002.218	-4815	2002.218	-4557.5
2002.219	-5022.5	2002.219	-4277.5	2002.219	-4830	2002.219	-4600
2002.22	-5075	2002.22	-4387.5	2002.22	-4960	2002.22	-4757.5
2002.221	-5035	2002.221	-4307.5	2002.221	-4990	2002.221	-4822.5
2002.222	-5042.5	2002.222	-4355	2002.222	-5065	2002.222	-4895
2002.223	-5060	2002.223	-4240	2002.223	-5005	2002.223	-4942.5
2002.224	-5022.5	2002.224	-4275	2002.224	-5075	2002.224	-4892.5
2002.225	-5015	2002.225	-4197.5	2002.225	-4957.5	2002.225	-4880
2002.226	-4970	2002.226	-4182.5	2002.226	-4990	2002.226	-4840
2002.227	-4982.5	2002.227	-4195	2002.227	-4930	2002.227	-4725
2002.228	-4927.5	2002.228	-4072.5	2002.228	-4875	2002.228	-4582.5
2002.229	-4905	2002.229	-4122.5	2002.229	-4827.5	2002.229	-4517.5
2002.23	-4867.5	2002.23	-4172.5	2002.23	-4882.5	2002.23	-4380
2002.231	-4865	2002.231	-4177.5	2002.231	-4732.5	2002.231	-4335
2002.232	-4815	2002.232	-4177.5	2002.232	-4727.5	2002.232	-4227.5
2002.233	-4752.5	2002.233	-4130	2002.233	-4635	2002.233	-4205
2002.234	-4780	2002.234	-4040	2002.234	-4615	2002.234	-4165
2002.235	-4795	2002.235	-4070	2002.235	-4730	2002.235	-4202.5
2002.236	-4790	2002.236	-4077.5	2002.236	-4715	2002.236	-4282.5
2002.237	-4755	2002.237	-3980	2002.237	-4800	2002.237	-4317.5
2002.238	-4720	2002.238	-4040	2002.238	-4870	2002.238	-4467.5
2002.239	-4745	2002.239	-4015	2002.239	-4777.5	2002.239	-4542.5
2002.24	-4672.5	2002.24	-4082.5	2002.24	-4822.5	2002.24	-4620
2002.241	-4742.5	2002.241	-4062.5	2002.241	-4930	2002.241	-4712.5
2002.242	-4672.5	2002.242	-3980	2002.242	-4887.5	2002.242	-4707.5
2002.243	-4635	2002.243	-3965	2002.243	-4852.5	2002.243	-4750
2002.244	-4582.5	2002.244	-3985	2002.244	-4900	2002.244	-4747.5
2002.245	-4540	2002.245	-3875	2002.245	-4790	2002.245	-4617.5
2002.246	-4497.5	2002.246	-3852.5	2002.246	-4677.5	2002.246	-4530
2002.247	-4392.5	2002.247	-3795	2002.247	-4657.5	2002.247	-4367.5
2002.248	-4380	2002.248	-3692.5	2002.248	-4530	2002.248	-4250
2002.249	-4355	2002.249	-3720	2002.249	-4587.5	2002.249	-4192.5
2002.25	-4357.5	2002.25	-3702.5	2002.25	-4552.5	2002.25	-4172.5
2002.251	-4340	2002.251	-3780	2002.251	-4470	2002.251	-4080
2002.252	-4265	2002.252	-3735	2002.252	-4475	2002.252	-3992.5
2002.253	-4270	2002.253	-3790	2002.253	-4377.5	2002.253	-3957.5
2002.254	-4282.5	2002.254	-3740	2002.254	-4345	2002.254	-3937.5
2002.255	-4247.5	2002.255	-3735	2002.255	-4352.5	2002.255	-3955
2002.256	-4225	2002.256	-3785	2002.256	-4457.5	2002.256	-3972.5
2002.257	-4282.5	2002.257	-3757.5	2002.257	-4482.5	2002.257	-4037.5
2002.258	-4265	2002.258	-3782.5	2002.258	-4507.5	2002.258	-4177.5
2002.259	-4232.5	2002.259	-3600	2002.259	-4522.5	2002.259	-4235
2002.26	-4190	2002.26	-3620	2002.26	-4520	2002.26	-4262.5
2002.261	-4157.5	2002.261	-3645	2002.261	-4592.5	2002.261	-4312.5
2002.262	-4147.5	2002.262	-3600	2002.262	-4612.5	2002.262	-4357.5
2002.263	-4165	2002.263	-3542.5	2002.263	-4620	2002.263	-4415
2002.264	-4162.5	2002.264	-3517.5	2002.264	-4690	2002.264	-4485
2002.265	-4077.5	2002.265	-3487.5	2002.265	-4577.5	2002.265	-4435
2002.266	-4035	2002.266	-3382.5	2002.266	-4580	2002.266	-4317.5
2002.267	-4055	2002.267	-3407.5	2002.267	-4467.5	2002.267	-4237.5
2002.268	-3980	2002.268	-3385	2002.268	-4402.5	2002.268	-4130
2002.269	-3982.5	2002.269	-3445	2002.269	-4352.5	2002.269	-4052.5
2002.27	-3932.5	2002.27	-3447.5	2002.27	-4327.5	2002.27	-3982.5
2002.271	-3925	2002.271	-3570	2002.271	-4212.5	2002.271	-3835
2002.272	-3850	2002.272	-3517.5	2002.272	-4197.5	2002.272	-3762.5
2002.273	-3817.5	2002.273	-3465	2002.273	-4212.5	2002.273	-3642.5
2002.274	-3780	2002.274	-3425	2002.274	-4115	2002.274	-3660
2002.275	-3767.5	2002.275	-3482.5	2002.275	-4072.5	2002.275	-3597.5
2002.276	-3785	2002.276	-3530	2002.276	-4190	2002.276	-3685
2002.277	-3755	2002.277	-3527.5	2002.277	-4160	2002.277	-3705
2002.278	-3717.5	2002.278	-3477.5	2002.278	-4212.5	2002.278	-3822.5
2002.279	-3700	2002.279	-3455	2002.279	-4177.5	2002.279	-3915
2002.28	-3675	2002.28	-3405	2002.28	-4185	2002.28	-3960
2002.281	-3642.5	2002.281	-3452.5	2002.281	-4342.5	2002.281	-3990
2002.282	-3605	2002.282	-3330	2002.282	-4305	2002.282	-4062.5
2002.283	-3580	2002.283	-3232.5	2002.283	-4220	2002.283	-4075
2002.284	-3552.5	2002.284	-3272.5	2002.284	-4185	2002.284	-4012.5
2002.285	-3537.5	2002.285	-3250	2002.285	-4227.5	2002.285	-4047.5
2002.286	-3522.5	2002.286	-3172.5	2002.286	-4165	2002.286	-3912.5
2002.287	-3482.5	2002.287	-3232.5	2002.287	-4075	2002.287	-3845
2002.288	-3397.5	2002.288	-3242.5	2002.288	-4032.5	2002.288	-3740
2002.289	-3405	2002.289	-3232.5	2002.289	-4007.5	2002.289	-3657.5
2002.29	-3365	2002.29	-3257.5	2002.29	-3887.5	2002.29	-3567.5
2002.291	-3272.5	2002.291	-3300	2002.291	-3842.5	2002.291	-3422.5
2002.292	-3220	2002.292	-3220	2002.292	-3672.5	2002.292	-3382.5
2002.293	-3157.5	2002.293	-3135	2002.293	-3695	2002.293	-3267.5
2002.294	-3187.5	2002.294	-3147.5	2002.294	-3695	2002.294	-3242.5
2002.295	-3180	2002.295	-3165	2002.295	-3660	2002.295	-3325
2002.296	-3170	2002.296	-3170	2002.296	-3722.5	2002.296	-3400
2002.297	-3177.5	2002.297	-3170	2002.297	-3870	2002.297	-3480
2002.298	-3242.5	2002.298	-3175	2002.298	-3982.5	2002.298	-3610
2002.299	-3207.5	2002.299	-3207.5	2002.299	-4002.5	2002.299	-3722.5
2002.3	-3222.5	2002.3	-3270	2002.3	-3995	2002.3	-3750
2002.301	-3225	2002.301	-3185	2002.301	-4087.5	2002.301	-3865
2002.302	-3170	2002.302	-3207.5	2002.302	-4052.5	2002.302	-3972.5
2002.303	-3182.5	2002.303	-3120	2002.303	-4090	2002.303	-3932.5
2002.304	-3147.5	2002.304	-3112.5	2002.304	-4045	2002.304	-3925
2002.305	-3152.5	2002.305	-3042.5	2002.305	-3992.5	2002.305	-3887.5
2002.306	-3122.5	2002.306	-3012.5	2002.306	-3892.5	2002.306	-3795
2002.307	-3115	2002.307	-3032.5	2002.307	-3855	2002.307	-3782.5
2002.308	-3035	2002.308	-2987.5	2002.308	-3840	2002.308	-3662.5
2002.309	-2982.5	2002.309	-3025	2002.309	-3717.5	2002.309	-3557.5
2002.31	-2937.5	2002.31	-3015	2002.31	-3782.5	2002.31	-3472.5
2002.311	-2895	2002.311	-2945	2002.311	-3517.5	2002.311	-3342.5
2002.312	-2872.5	2002.312	-2952.5	2002.312	-3520	2002.312	-3310
2002.313	-2870	2002.313	-2917.5	2002.313	-3530	2002.313	-3237.5
2002.314	-2842.5	2002.314	-2915	2002.314	-3525	2002.314	-3272.5
2002.315	-2852.5	2002.315	-2960	2002.315	-3517.5	2002.315	-3305
2002.316	-2897.5	2002.316	-2850	2002.316	-3555	2002.316	-3455
2002.317	-2895	2002.317	-2865	2002.317	-3572.5	2002.317	-3557.5
2002.318	-2910	2002.318	-2952.5	2002.318	-3670	2002.318	-3597.5
2002.319	-2860	2002.319	-2962.5	2002.319	-3650	2002.319	-3672.5
2002.32	-2887.5	2002.32	-3020	2002.32	-3715	2002.32	-3740
2002.321	-2882.5	2002.321	-3040	2002.321	-3760	2002.321	-3845
2002.322	-2830	2002.322	-2870	2002.322	-3737.5	2002.322	-3890
2002.323	-2797.5	2002.323	-2915	2002.323	-3670	2002.323	-3910
2002.324	-2785	2002.324	-2975	2002.324	-3732.5	2002.324	-3950
2002.325	-2772.5	2002.325	-3035	2002.325	-3690	2002.325	-3872.5
2002.326	-2797.5	2002.326	-2987.5	2002.326	-3487.5	2002.326	-3815
2002.327	-2722.5	2002.327	-3002.5	2002.327	-3580	2002.327	-3725
2002.328	-2730	2002.328	-3075	2002.328	-3437.5	2002.328	-3710
2002.329	-2727.5	2002.329	-3000	2002.329	-3425	2002.329	-3592.5
2002.33	-2690	2002.33	-2947.5	2002.33	-3377.5	2002.33	-3510
2002.331	-2657.5	2002.331	-2975	2002.331	-3260	2002.331	-3450
2002.332	-2672.5	2002.332	-2967.5	2002.332	-3295	2002.332	-3377.5
2002.333	-2635	2002.333	-2907.5	2002.333	-3175	2002.333	-3290
2002.334	-2650	2002.334	-2910	2002.334	-3170	2002.334	-3315
2002.335	-2582.5	2002.335	-2870	2002.335	-3225	2002.335	-3240
2002.336	-2600	2002.336	-2925	2002.336	-3162.5	2002.336	-3317.5
2002.337	-2592.5	2002.337	-2930	2002.337	-3295	2002.337	-3380
2002.338	-2572.5	2002.338	-3045	2002.338	-3357.5	2002.338	-3530
2002.339	-2587.5	2002.339	-2992.5	2002.339	-3330	2002.339	-3617.5
2002.34	-2627.5	2002.34	-3020	2002.34	-3415	2002.34	-3727.5
2002.341	-2560	2002.341	-3107.5	2002.341	-3512.5	2002.341	-3827.5
2002.342	-2582.5	2002.342	-3117.5	2002.342	-3427.5	2002.342	-3870
2002.343	-2565	2002.343	-3132.5	2002.343	-3482.5	2002.343	-3875
2002.344	-2492.5	2002.344	-3137.5	2002.344	-3460	2002.344	-3882.5
2002.345	-2537.5	2002.345	-3150	2002.345	-3395	2002.345	-3850
2002.346	-2472.5	2002.346	-3065	2002.346	-3237.5	2002.346	-3695
2002.347	-2462.5	2002.347	-3075	2002.347	-3285	2002.347	-3642.5
2002.348	-2455	2002.348	-2990	2002.348	-3237.5	2002.348	-3552.5
2002.349	-2422.5	2002.349	-3032.5	2002.349	-3140	2002.349	-3500
2002.35	-2375	2002.35	-2960	2002.35	-3142.5	2002.35	-3350
2002.351	-2320	2002.351	-2910	2002.351	-3065	2002.351	-3282.5
2002.352	-2337.5	2002.352	-2847.5	2002.352	-3015	2002.352	-3172.5
2002.353	-2357.5	2002.353	-2810	2002.353	-3050	2002.353	-3190
2002.354	-2282.5	2002.354	-2807.5	2002.354	-3017.5	2002.354	-3115
2002.355	-2257.5	2002.355	-2807.5	2002.355	-3085	2002.355	-3132.5
2002.356	-2225	2002.356	-2847.5	2002.356	-3090	2002.356	-3157.5
2002.357	-2205	2002.357	-2852.5	2002.357	-3045	2002.357	-3235
2002.358	-2215	2002.358	-2897.5	2002.358	-3140	2002.358	-3345
2002.359	-2167.5	2002.359	-2892.5	2002.359	-3177.5	2002.359	-3387.5
2002.36	-2215	2002.36	-2900	2002.36	-3225	2002.36	-3437.5
2002.361	-2170	2002.361	-2962.5	2002.361	-3240	2002.361	-3522.5
2002.362	-2160	2002.362	-2925	2002.362	-3217.5	2002.362	-3562.5
2002.363	-2142.5	2002.363	-2935	2002.363	-3200	2002.363	-3615
2002.364	-2095	2002.364	-2925	2002.364	-3160	2002.364	-3515
2002.365	-2047.5	2002.365	-2897.5	2002.365	-3190	2002.365	-3477.5
2002.366	-2062.5	2002.366	-2802.5	2002.366	-3010	2002.366	-3380
2002.367	-2020	2002.367	-2835	2002.367	-3052.5	2002.367	-3267.5
2002.368	-2002.5	2002.368	-2762.5	2002.368	-2977.5	2002.368	-3177.5
2002.369	-2015	2002.369	-2635	2002.369	-2990	2002.369	-3140
2002.37	-1997.5	2002.37	-2587.5	2002.37	-2970	2002.37	-3032.5
2002.371	-1917.5	2002.371	-2512.5	2002.371	-2802.5	2002.371	-2942.5
2002.372	-1922.5	2002.372	-2505	2002.372	-2862.5	2002.372	-2920
2002.373	-1905	2002.373	-2515	2002.373	-2787.5	2002.373	-2817.5
2002.374	-1895	2002.374	-2490	2002.374	-2822.5	2002.374	-2780
2002.375	-1917.5	2002.375	-2550	2002.375	-2767.5	2002.375	-2855
2002.376	-1925	2002.376	-2495	2002.376	-2835	2002.376	-2910
2002.377	-1825	2002.377	-2557.5	2002.377	-2822.5	2002.377	-2907.5
2002.378	-1875	2002.378	-2632.5	2002.378	-2840	2002.378	-2990
2002.379	-1842.5	2002.379	-2617.5	2002.379	-2875	2002.379	-3087.5
2002.38	-1877.5	2002.38	-2657.5	2002.38	-2870	2002.38	-3140
2002.381	-1830	2002.381	-2675	2002.381	-2990	2002.381	-3205
2002.382	-1842.5	2002.382	-2687.5	2002.382	-2937.5	2002.382	-3202.5
2002.383	-1775	2002.383	-2635	2002.383	-3037.5	2002.383	-3172.5
2002.384	-1837.5	2002.384	-2645	2002.384	-3025	2002.384	-3237.5
2002.385	-1817.5	2002.385	-2557.5	2002.385	-2992.5	2002.385	-3247.5
2002.386	-1767.5	2002.386	-2490	2002.386	-2872.5	2002.386	-3120
2002.387	-1732.5	2002.387	-2455	2002.387	-2867.5	2002.387	-2965
2002.388	-1727.5	2002.388	-2450	2002.388	-2802.5	2002.388	-2880
2002.389	-1700	2002.389	-2460	2002.389	-2677.5	2002.389	-2732.5
2002.39	-1680	2002.39	-2342.5	2002.39	-2632.5	2002.39	-2655
2002.391	-1620	2002.391	-2250	2002.391	-2657.5	2002.391	-2582.5
2002.392	-1595	2002.392	-2222.5	2002.392	-2560	2002.392	-2480
2002.393	-1570	2002.393	-2145	2002.393	-2560	2002.393	-2407.5
2002.394	-1552.5	2002.394	-2095	2002.394	-2490	2002.394	-2327.5
2002.395	-1590	2002.395	-2100	2002.395	-2550	2002.395	-2375
2002.396	-1620	2002.396	-2130	2002.396	-2667.5	2002.396	-2465
2002.397	-1550	2002.397	-2250	2002.397	-2545	2002.397	-2447.5
2002.398	-1570	2002.398	-2180	2002.398	-2730	2002.398	-2615
2002.399	-1550	2002.399	-2255	2002.399	-2710	2002.399	-2610
2002.4	-1597.5	2002.4	-2182.5	2002.4	-2667.5	2002.4	-2695
2002.401	-1595	2002.401	-2252.5	2002.401	-2757.5	2002.401	-2780
2002.402	-1607.5	2002.402	-2257.5	2002.402	-2795	2002.402	-2817.5
2002.403	-1617.5	2002.403	-2272.5	2002.403	-2822.5	2002.403	-2870
2002.404	-1530	2002.404	-2122.5	2002.404	-2792.5	2002.404	-2760
2002.405	-1600	2002.405	-2115	2002.405	-2795	2002.405	-2715
2002.406	-1575	2002.406	-2060	2002.406	-2780	2002.406	-2575
2002.407	-1565	2002.407	-1980	2002.407	-2712.5	2002.407	-2542.5
2002.408	-1490	2002.408	-1947.5	2002.408	-2545	2002.408	-2402.5
2002.409	-1462.5	2002.409	-2012.5	2002.409	-2570	2002.409	-2370
2002.41	-1460	2002.41	-1962.5	2002.41	-2460	2002.41	-2210
2002.411	-1442.5	2002.411	-1975	2002.411	-2505	2002.411	-2165
2002.412	-1412.5	2002.412	-1880	2002.412	-2427.5	2002.412	-2082.5
2002.413	-1422.5	2002.413	-1870	2002.413	-2367.5	2002.413	-2070
2002.414	-1427.5	2002.414	-1957.5	2002.414	-2422.5	2002.414	-2025
2002.415	-1385	2002.415	-1897.5	2002.415	-2385	2002.415	-2015
2002.416	-1395	2002.416	-1897.5	2002.416	-2417.5	2002.416	-2052.5
2002.417	-1407.5	2002.417	-1960	2002.417	-2455	2002.417	-2185
2002.418	-1417.5	2002.418	-1967.5	2002.418	-2505	2002.418	-2282.5
2002.419	-1452.5	2002.419	-1852.5	2002.419	-2567.5	2002.419	-2257.5
2002.42	-1437.5	2002.42	-1800	2002.42	-2535	2002.42	-2390
2002.421	-1465	2002.421	-1890	2002.421	-2615	2002.421	-2430
2002.422	-1492.5	2002.422	-1835	2002.422	-2640	2002.422	-2485
2002.423	-1430	2002.423	-1817.5	2002.423	-2635	2002.423	-2392.5
2002.424	-1402.5	2002.424	-1745	2002.424	-2627.5	2002.424	-2417.5
2002.425	-1402.5	2002.425	-1682.5	2002.425	-2602.5	2002.425	-2350
2002.426	-1420	2002.426	-1745	2002.426	-2555	2002.426	-2295
2002.427	-1365	2002.427	-1725	2002.427	-2477.5	2002.427	-2232.5
2002.428	-1370	2002.428	-1572.5	2002.428	-2442.5	2002.428	-2142.5
2002.429	-1355	2002.429	-1565	2002.429	-2330	2002.429	-1952.5
2002.43	-1350	2002.43	-1627.5	2002.43	-2365	2002.43	-1910
2002.431	-1342.5	2002.431	-1602.5	2002.431	-2285	2002.431	-1780
2002.432	-1325	2002.432	-1645	2002.432	-2267.5	2002.432	-1762.5
2002.433	-1337.5	2002.433	-1630	2002.433	-2255	2002.433	-1650
2002.434	-1297.5	2002.434	-1612.5	2002.434	-2200	2002.434	-1665
2002.435	-1305	2002.435	-1567.5	2002.435	-2230	2002.435	-1612.5
2002.436	-1285	2002.436	-1610	2002.436	-2257.5	2002.436	-1670
2002.437	-1312.5	2002.437	-1552.5	2002.437	-2285	2002.437	-1797.5
2002.438	-1332.5	2002.438	-1632.5	2002.438	-2352.5	2002.438	-1872.5
2002.439	-1312.5	2002.439	-1665	2002.439	-2292.5	2002.439	-1845
2002.44	-1267.5	2002.44	-1617.5	2002.44	-2270	2002.44	-1857.5
2002.441	-1285	2002.441	-1607.5	2002.441	-2340	2002.441	-1940
2002.442	-1292.5	2002.442	-1630	2002.442	-2365	2002.442	-2012.5
2002.443	-1290	2002.443	-1610	2002.443	-2357.5	2002.443	-1990
2002.444	-1265	2002.444	-1567.5	2002.444	-2397.5	2002.444	-2037.5
2002.445	-1155	2002.445	-1472.5	2002.445	-2252.5	2002.445	-1872.5
2002.446	-1177.5	2002.446	-1495	2002.446	-2205	2002.446	-1765
2002.447	-1160	2002.447	-1520	2002.447	-2212.5	2002.447	-1735
2002.448	-1165	2002.448	-1450	2002.448	-2155	2002.448	-1695
2002.449	-1180	2002.449	-1402.5	2002.449	-2162.5	2002.449	-1680
2002.45	-1362.5	2002.45	-1522.5	2002.45	-2187.5	2002.45	-1700
2002.451	-1607.5	2002.451	-1860	2002.451	-2430	2002.451	-1805
2002.452	-1557.5	2002.452	-1695	2002.452	-2352.5	2002.452	-1730
2002.453	-1907.5	2002.453	-2082.5	2002.453	-2665	2002.453	-1945
2002.454	-2242.5	2002.454	-2362.5	2002.454	-2857.5	2002.454	-2180
2002.455	-2512.5	2002.455	-2667.5	2002.455	-3207.5	2002.455	-2432.5
2002.456	-2392.5	2002.456	-2567.5	2002.456	-3227.5	2002.456	-2420
2002.457	-2032.5	2002.457	-2265	2002.457	-2902.5	2002.457	-2160
2002.458	-1427.5	2002.458	-1732.5	2002.458	-2392.5	2002.458	-1702.5
2002.459	-1090	2002.459	-1407.5	2002.459	-2137.5	2002.459	-1460
2002.46	-885	2002.46	-1170	2002.46	-1852.5	2002.46	-1272.5
2002.461	-335	2002.461	-625	2002.461	-1397.5	2002.461	-880
2002.462	-77.5	2002.462	-342.5	2002.462	-1095	2002.462	-587.5
2002.463	-477.5	2002.463	-705	2002.463	-1470	2002.463	-997.5
2002.464	-512.5	2002.464	-812.5	2002.464	-1545	2002.464	-1095
2002.465	-642.5	2002.465	-870	2002.465	-1570	2002.465	-1137.5
2002.466	-1410	2002.466	-1582.5	2002.466	-2230	2002.466	-1742.5
2002.467	-2735	2002.467	-2862.5	2002.467	-3475	2002.467	-2900
2002.468	-1977.5	2002.468	-2260	2002.468	-2745	2002.468	-2135
2002.469	-1225	2002.469	-1585	2002.469	-1982.5	2002.469	-1395
2002.47	-1502.5	2002.47	-1822.5	2002.47	-2170	2002.47	-1512.5
2002.471	-1377.5	2002.471	-1695	2002.471	-2040	2002.471	-1287.5
2002.472	-1265	2002.472	-1700	2002.472	-1985	2002.472	-1195
2002.473	-1465	2002.473	-1762.5	2002.473	-2080	2002.473	-1227.5
2002.474	-1730	2002.474	-2040	2002.474	-2352.5	2002.474	-1540
2002.475	-1852.5	2002.475	-2117.5	2002.475	-2432.5	2002.475	-1630
2002.476	-1917.5	2002.476	-2290	2002.476	-2565	2002.476	-1795
2002.477	-2555	2002.477	-2800	2002.477	-3115	2002.477	-2335
2002.478	-3187.5	2002.478	-3400	2002.478	-3795	2002.478	-3042.5
2002.479	-3467.5	2002.479	-3692.5	2002.479	-4137.5	2002.479	-3377.5
2002.48	-3790	2002.48	-3992.5	2002.48	-4470	2002.48	-3770
2002.481	-3880	2002.481	-3960	2002.481	-4622.5	2002.481	-3967.5
2002.482	-3862.5	2002.482	-3932.5	2002.482	-4617.5	2002.482	-3992.5
2002.483	-3760	2002.483	-3957.5	2002.483	-4585	2002.483	-3960
2002.484	-3715	2002.484	-3905	2002.484	-4490	2002.484	-3952.5
2002.485	-3600	2002.485	-3755	2002.485	-4415	2002.485	-3807.5
2002.486	-3497.5	2002.486	-3687.5	2002.486	-4247.5	2002.486	-3620
2002.487	-3395	2002.487	-3615	2002.487	-4137.5	2002.487	-3457.5
2002.488	-3312.5	2002.488	-3487.5	2002.488	-4010	2002.488	-3232.5
2002.489	-3225	2002.489	-3392.5	2002.489	-3842.5	2002.489	-3087.5
2002.49	-3090	2002.49	-3230	2002.49	-3727.5	2002.49	-2922.5
2002.491	-3037.5	2002.491	-3135	2002.491	-3627.5	2002.491	-2762.5
2002.492	-2947.5	2002.492	-3107.5	2002.492	-3567.5	2002.492	-2680
2002.493	-2865	2002.493	-3015	2002.493	-3467.5	2002.493	-2505
2002.494	-2810	2002.494	-2987.5	2002.494	-3315	2002.494	-2502.5
2002.495	-2772.5	2002.495	-3002.5	2002.495	-3377.5	2002.495	-2460
2002.496	-2757.5	2002.496	-2967.5	2002.496	-3370	2002.496	-2540
2002.497	-2675	2002.497	-2895	2002.497	-3300	2002.497	-2500
2002.498	-2607.5	2002.498	-2902.5	2002.498	-3320	2002.498	-2472.5
2002.499	-2517.5	2002.499	-2810	2002.499	-3200	2002.499	-2500
2002.5	-2497.5	2002.5	-2770	2002.5	-3277.5	2002.5	-2557.5
2002.501	-2505	2002.501	-2670	2002.501	-3280	2002.501	-2550
2002.502	-2515	2002.502	-2625	2002.502	-3257.5	2002.502	-2605
2002.503	-2492.5	2002.503	-2675	2002.503	-3195	2002.503	-2570
2002.504	-2457.5	2002.504	-2617.5	2002.504	-3302.5	2002.504	-2587.5
2002.505	-2432.5	2002.505	-2535	2002.505	-3182.5	2002.505	-2537.5
2002.506	-2362.5	2002.506	-2490	2002.506	-3102.5	2002.506	-2447.5
2002.507	-2305	2002.507	-2487.5	2002.507	-2970	2002.507	-2372.5
2002.508	-2260	2002.508	-2462.5	2002.508	-2945	2002.508	-2167.5
2002.509	-2217.5	2002.509	-2480	2002.509	-2787.5	2002.509	-2055
2002.51	-2200	2002.51	-2427.5	2002.51	-2772.5	2002.51	-1900
2002.511	-2207.5	2002.511	-2420	2002.511	-2672.5	2002.511	-1907.5
2002.512	-2200	2002.512	-2367.5	2002.512	-2632.5	2002.512	-1857.5
2002.513	-2410	2002.513	-2607.5	2002.513	-2922.5	2002.513	-2025
2002.514	-3200	2002.514	-3385	2002.514	-3672.5	2002.514	-2695
2002.515	-3962.5	2002.515	-4342.5	2002.515	-4155	2002.515	-3105
2002.516	-3525	2002.516	-4152.5	2002.516	-3635	2002.516	-2217.5
2002.517	-2300	2002.517	-4270	2002.517	-1882.5	2002.517	-240
2002.518	1410	2002.518	-2807.5	2002.518	2485	2002.518	3515
2002.519	8965	2002.519	2247.5	2002.519	10892.5	2002.519	10720
2002.52	20310	2002.52	12240	2002.52	22325	2002.52	20682.5
2002.521	31702.5	2002.521	25200	2002.521	32567.5	2002.521	28515
2002.522	40820	2002.522	38855	2002.522	40597.5	2002.522	34327.5
2002.523	46252.5	2002.523	51950	2002.523	48420	2002.523	41067.5
2002.524	38577.5	2002.524	57032.5	2002.524	49142.5	2002.524	48130
2002.525	39272.5	2002.525	54337.5	2002.525	41772.5	2002.525	52082.5
2002.526	54397.5	2002.526	26147.5	2002.526	32495	2002.526	51615
2002.527	-15762.5	2002.527	-16625	2002.527	-23335	2002.527	-14950
2002.528	-5787.5	2002.528	-10027.5	2002.528	-7657.5	2002.528	-6425
2002.529	-90	2002.529	-5962.5	2002.529	-3315	2002.529	-312.5
2002.53	4132.5	2002.53	-2375	2002.53	270	2002.53	4355
2002.531	8040	2002.531	1195	2002.531	4255	2002.531	8847.5
2002.532	10347.5	2002.532	3170	2002.532	6985	2002.532	12165
2002.533	11070	2002.533	3570	2002.533	8152.5	2002.533	14042.5
2002.534	12330	2002.534	4385	2002.534	9802.5	2002.534	16427.5
2002.535	13922.5	2002.535	5630	2002.535	11490	2002.535	19152.5
2002.536	15480	2002.536	6755	2002.536	13175	2002.536	21572.5
2002.537	17147.5	2002.537	8262.5	2002.537	14830	2002.537	23735
2002.538	18577.5	2002.538	9645	2002.538	15960	2002.538	25320
2002.539	19872.5	2002.539	11305	2002.539	16962.5	2002.539	26330
2002.54	20952.5	2002.54	13267.5	2002.54	17775	2002.54	26712.5
2002.541	21760	2002.541	15192.5	2002.541	18375	2002.541	26740
2002.542	22210	2002.542	16905	2002.542	18750	2002.542	26360
2002.543	22375	2002.543	18207.5	2002.543	18997.5	2002.543	25890
2002.544	22312.5	2002.544	19215	2002.544	19085	2002.544	25262.5
2002.545	22042.5	2002.545	19630	2002.545	18987.5	2002.545	24485
2002.546	21657.5	2002.546	19802.5	2002.546	18835	2002.546	23622.5
2002.547	21110	2002.547	19695	2002.547	18552.5	2002.547	22852.5
2002.548	20537.5	2002.548	19322.5	2002.548	18292.5	2002.548	22130
2002.549	19837.5	2002.549	18885	2002.549	17895	2002.549	21345
2002.55	19035	2002.55	18277.5	2002.55	17300	2002.55	20490
2002.551	18360	2002.551	17635	2002.551	16852.5	2002.551	19757.5
2002.552	17587.5	2002.552	16967.5	2002.552	16162.5	2002.552	18915
2002.553	16820	2002.553	16225	2002.553	15607.5	2002.553	18117.5
2002.554	16045	2002.554	15445	2002.554	15050	2002.554	17392.5
2002.555	15307.5	2002.555	14750	2002.555	14405	2002.555	16542.5
2002.556	14582.5	2002.556	13960	2002.556	13730	2002.556	15705
2002.557	13915	2002.557	13352.5	2002.557	13072.5	2002.557	14930
2002.558	13155	2002.558	12695	2002.558	12380	2002.558	14150
2002.559	12525	2002.559	11990	2002.559	11897.5	2002.559	13392.5
2002.56	11857.5	2002.56	11245	2002.56	11337.5	2002.56	12717.5
2002.561	11297.5	2002.561	10632.5	2002.561	10672.5	2002.561	11962.5
2002.562	10667.5	2002.562	10082.5	2002.562	10207.5	2002.562	11315
2002.563	10145	2002.563	9507.5	2002.563	9702.5	2002.563	10685
2002.564	9612.5	2002.564	8947.5	2002.564	9220	2002.564	10197.5
2002.565	9122.5	2002.565	8392.5	2002.565	8802.5	2002.565	9720
2002.566	8600	2002.566	7957.5	2002.566	8370	2002.566	9217.5
2002.567	8165	2002.567	7380	2002.567	8047.5	2002.567	8822.5
2002.568	7747.5	2002.568	6990	2002.568	7717.5	2002.568	8580
2002.569	7382.5	2002.569	6555	2002.569	7397.5	2002.569	8275
2002.57	7035	2002.57	6167.5	2002.57	7202.5	2002.57	8012.5
2002.571	6647.5	2002.571	5835	2002.571	6965	2002.571	7730
2002.572	6340	2002.572	5452.5	2002.572	6695	2002.572	7372.5
2002.573	6020	2002.573	5205	2002.573	6385	2002.573	7110
2002.574	5722.5	2002.574	4850	2002.574	6122.5	2002.574	6825
2002.575	5392.5	2002.575	4465	2002.575	5915	2002.575	6455
2002.576	5087.5	2002.576	4080	2002.576	5642.5	2002.576	6090
2002.577	4850	2002.577	3737.5	2002.577	5375	2002.577	5765
2002.578	4592.5	2002.578	3657.5	2002.578	5045	2002.578	5417.5
2002.579	4350	2002.579	3337.5	2002.579	4845	2002.579	4987.5
2002.58	4060	2002.58	3105	2002.58	4625	2002.58	4705
2002.581	3860	2002.581	2812.5	2002.581	4325	2002.581	4422.5
2002.582	3592.5	2002.582	2497.5	2002.582	4125	2002.582	4130
2002.583	3357.5	2002.583	2262.5	2002.583	3957.5	2002.583	3912.5
2002.584	3130	2002.584	2130	2002.584	3655	2002.584	3647.5
2002.585	2942.5	2002.585	1920	2002.585	3470	2002.585	3460
2002.586	2705	2002.586	1720	2002.586	3295	2002.586	3297.5
2002.587	2532.5	2002.587	1552.5	2002.587	3212.5	2002.587	3157.5
2002.588	2345	2002.588	1317.5	2002.588	3122.5	2002.588	3032.5
2002.589	2095	2002.589	1170	2002.589	2930	2002.589	2910
2002.59	1912.5	2002.59	995	2002.59	2790	2002.59	2770
2002.591	1695	2002.591	847.5	2002.591	2687.5	2002.591	2630
2002.592	1480	2002.592	637.5	2002.592	2442.5	2002.592	2450
2002.593	1265	2002.593	497.5	2002.593	2272.5	2002.593	2297.5
2002.594	1020	2002.594	295	2002.594	2000	2002.594	2050
2002.595	787.5	2002.595	180	2002.595	1837.5	2002.595	1767.5
2002.596	585	2002.596	-10	2002.596	1562.5	2002.596	1520
2002.597	397.5	2002.597	-105	2002.597	1260	2002.597	1187.5
2002.598	142.5	2002.598	-357.5	2002.598	1040	2002.598	837.5
2002.599	-67.5	2002.599	-535	2002.599	832.5	2002.599	547.5
2002.6	-272.5	2002.6	-630	2002.6	635	2002.6	267.5
2002.601	-545	2002.601	-852.5	2002.601	317.5	2002.601	10
2002.602	-737.5	2002.602	-1025	2002.602	92.5	2002.602	-260
2002.603	-970	2002.603	-1097.5	2002.603	-165	2002.603	-562.5
2002.604	-1202.5	2002.604	-1260	2002.604	-322.5	2002.604	-780
2002.605	-1347.5	2002.605	-1445	2002.605	-542.5	2002.605	-867.5
2002.606	-1510	2002.606	-1422.5	2002.606	-700	2002.606	-1007.5
2002.607	-1690	2002.607	-1647.5	2002.607	-790	2002.607	-1120
2002.608	-1870	2002.608	-1685	2002.608	-885	2002.608	-1172.5
2002.609	-2057.5	2002.609	-1865	2002.609	-1070	2002.609	-1295
2002.61	-2197.5	2002.61	-2020	2002.61	-1260	2002.61	-1360
2002.611	-2370	2002.611	-2147.5	2002.611	-1447.5	2002.611	-1477.5
2002.612	-2555	2002.612	-2200	2002.612	-1620	2002.612	-1642.5
2002.613	-2735	2002.613	-2252.5	2002.613	-1700	2002.613	-1782.5
2002.614	-2895	2002.614	-2402.5	2002.614	-2025	2002.614	-1922.5
2002.615	-3060	2002.615	-2572.5	2002.615	-2145	2002.615	-2125
2002.616	-3187.5	2002.616	-2700	2002.616	-2287.5	2002.616	-2307.5
2002.617	-3322.5	2002.617	-2765	2002.617	-2520	2002.617	-2510
2002.618	-3490	2002.618	-2982.5	2002.618	-2807.5	2002.618	-2787.5
2002.619	-3630	2002.619	-3072.5	2002.619	-2932.5	2002.619	-3060
2002.62	-3770	2002.62	-3160	2002.62	-3145	2002.62	-3225
2002.621	-3882.5	2002.621	-3272.5	2002.621	-3345	2002.621	-3505
2002.622	-3995	2002.622	-3377.5	2002.622	-3565	2002.622	-3677.5
2002.623	-4080	2002.623	-3432.5	2002.623	-3682.5	2002.623	-3810
2002.624	-4197.5	2002.624	-3555	2002.624	-3777.5	2002.624	-3937.5
2002.625	-4227.5	2002.625	-3567.5	2002.625	-3822.5	2002.625	-4025
2002.626	-4285	2002.626	-3622.5	2002.626	-3937.5	2002.626	-4032.5
2002.627	-4305	2002.627	-3717.5	2002.627	-4027.5	2002.627	-3940
2002.628	-4417.5	2002.628	-3787.5	2002.628	-4065	2002.628	-3987.5
2002.629	-4505	2002.629	-3805	2002.629	-4082.5	2002.629	-3980
2002.63	-4515	2002.63	-3827.5	2002.63	-4165	2002.63	-3962.5
2002.631	-4555	2002.631	-3877.5	2002.631	-4250	2002.631	-3870
2002.632	-4582.5	2002.632	-3967.5	2002.632	-4165	2002.632	-3920
2002.633	-4570	2002.633	-3917.5	2002.633	-4172.5	2002.633	-3817.5
2002.634	-4610	2002.634	-4007.5	2002.634	-4260	2002.634	-3865
2002.635	-4677.5	2002.635	-4070	2002.635	-4400	2002.635	-3975
2002.636	-4735	2002.636	-4100	2002.636	-4490	2002.636	-4017.5
2002.637	-4752.5	2002.637	-4122.5	2002.637	-4667.5	2002.637	-4122.5
2002.638	-4790	2002.638	-4112.5	2002.638	-4672.5	2002.638	-4282.5
2002.639	-4872.5	2002.639	-4105	2002.639	-4800	2002.639	-4472.5
2002.64	-4925	2002.64	-4132.5	2002.64	-4880	2002.64	-4572.5
2002.641	-4977.5	2002.641	-4110	2002.641	-4995	2002.641	-4707.5
2002.642	-5002.5	2002.642	-4145	2002.642	-5050	2002.642	-4850
2002.643	-4985	2002.643	-4107.5	2002.643	-5050	2002.643	-4800
2002.644	-5020	2002.644	-4140	2002.644	-5137.5	2002.644	-4842.5
2002.645	-5007.5	2002.645	-4140	2002.645	-5135	2002.645	-4797.5
2002.646	-4977.5	2002.646	-4200	2002.646	-5055	2002.646	-4705
2002.647	-5015	2002.647	-4177.5	2002.647	-5015	2002.647	-4732.5
2002.648	-4932.5	2002.648	-4130	2002.648	-4965	2002.648	-4555
2002.649	-4930	2002.649	-4175	2002.649	-4900	2002.649	-4497.5
2002.65	-4882.5	2002.65	-4235	2002.65	-4970	2002.65	-4427.5
2002.651	-4852.5	2002.651	-4310	2002.651	-4907.5	2002.651	-4302.5
2002.652	-4857.5	2002.652	-4252.5	2002.652	-4807.5	2002.652	-4240
2002.653	-4850	2002.653	-4225	2002.653	-4890	2002.653	-4175
2002.654	-4832.5	2002.654	-4330	2002.654	-4915	2002.654	-4207.5
