H2(X)	H2(Y)	H3(X)	H3(Y)	H4(X)	H4(Y)	J3(X)	J3(Y)
2000.746	-3795	2000.746	-3410	2000.746	-3490	2000.746	-3830
2000.747	-3707.5	2000.747	-3340	2000.747	-3412.5	2000.747	-3715
2000.748	-3530	2000.748	-3165	2000.748	-3302.5	2000.748	-3607.5
2000.749	-3302.5	2000.749	-2912.5	2000.749	-3195	2000.749	-3447.5
2000.75	-3172.5	2000.75	-2682.5	2000.75	-3072.5	2000.75	-3295
2000.751	-2952.5	2000.751	-2612.5	2000.751	-2990	2000.751	-3145
2000.752	-2857.5	2000.752	-2480	2000.752	-2887.5	2000.752	-3007.5
2000.753	-2697.5	2000.753	-2310	2000.753	-2810	2000.753	-2915
2000.754	-2585	2000.754	-2155	2000.754	-2725	2000.754	-2777.5
2000.755	-2635	2000.755	-2112.5	2000.755	-2680	2000.755	-2752.5
2000.756	-2535	2000.756	-2167.5	2000.756	-2627.5	2000.756	-2765
2000.757	-2590	2000.757	-2157.5	2000.757	-2570	2000.757	-2660
2000.758	-2640	2000.758	-2157.5	2000.758	-2525	2000.758	-2697.5
2000.759	-2662.5	2000.759	-2175	2000.759	-2490	2000.759	-2662.5
2000.76	-2662.5	2000.76	-2132.5	2000.76	-2417.5	2000.76	-2610
2000.761	-2615	2000.761	-2165	2000.761	-2375	2000.761	-2642.5
2000.762	-2615	2000.762	-2130	2000.762	-2280	2000.762	-2585
2000.763	-2632.5	2000.763	-2165	2000.763	-2275	2000.763	-2545
2000.764	-2577.5	2000.764	-2140	2000.764	-2252.5	2000.764	-2557.5
2000.765	-2532.5	2000.765	-2122.5	2000.765	-2165	2000.765	-2457.5
2000.766	-2400	2000.766	-1950	2000.766	-2120	2000.766	-2362.5
2000.767	-2315	2000.767	-1892.5	2000.767	-2057.5	2000.767	-2397.5
2000.768	-2087.5	2000.768	-1785	2000.768	-2005	2000.768	-2245
2000.769	-1952.5	2000.769	-1667.5	2000.769	-1975	2000.769	-2247.5
2000.77	-1795	2000.77	-1600	2000.77	-1925	2000.77	-2167.5
2000.771	-1725	2000.771	-1530	2000.771	-1835	2000.771	-2050
2000.772	-1702.5	2000.772	-1492.5	2000.772	-1897.5	2000.772	-1982.5
2000.773	-1770	2000.773	-1425	2000.773	-1867.5	2000.773	-1945
2000.774	-1735	2000.774	-1425	2000.774	-1850	2000.774	-1945
2000.775	-1992.5	2000.775	-1750	2000.775	-2162.5	2000.775	-2240
2000.776	-2802.5	2000.776	-2550	2000.776	-2970	2000.776	-3032.5
2000.777	-2985	2000.777	-2812.5	2000.777	-3490	2000.777	-3205
2000.778	-1917.5	2000.778	-2100	2000.778	-3042.5	2000.778	-2547.5
2000.779	-235	2000.779	-1292.5	2000.779	-3057.5	2000.779	-1920
2000.78	3645	2000.78	1672.5	2000.78	-562.5	2000.78	837.5
2000.781	11085	2000.781	8752.5	2000.781	6842.5	2000.781	7620
2000.782	20530	2000.782	19322.5	2000.782	19107.5	2000.782	17712.5
2000.783	27382.5	2000.783	28617.5	2000.783	31042.5	2000.783	25657.5
2000.784	31145	2000.784	35165	2000.784	40600	2000.784	31460
2000.785	37520	2000.785	45640	2000.785	53600	2000.785	40450
2000.786	44747.5	2000.786	53670	2000.786	57865	2000.786	47802.5
2000.787	48227.5	2000.787	57877.5	2000.787	59722.5	2000.787	52695
2000.788	807.5	2000.788	23117.5	2000.788	61875	2000.788	29547.5
2000.789	-10680	2000.789	-14880	2000.789	-23522.5	2000.789	-15375
2000.79	-5617.5	2000.79	-5745	2000.79	-8957.5	2000.79	-8685
2000.791	-920	2000.791	-275	2000.791	-1990	2000.791	-3205
2000.792	3642.5	2000.792	4402.5	2000.792	2980	2000.792	1532.5
2000.793	7582.5	2000.793	8290	2000.793	6935	2000.793	5397.5
2000.794	10250	2000.794	10777.5	2000.794	9332.5	2000.794	7832.5
2000.795	11862.5	2000.795	12200	2000.795	10620	2000.795	9127.5
2000.796	14140	2000.796	14357.5	2000.796	12780	2000.796	11222.5
2000.797	16420	2000.797	16500	2000.797	14880	2000.797	13390
2000.798	18650	2000.798	18612.5	2000.798	17020	2000.798	15357.5
2000.799	20670	2000.799	20550	2000.799	19052.5	2000.799	17250
2000.8	22107.5	2000.8	22022.5	2000.8	20565	2000.8	18857.5
2000.801	23117.5	2000.801	22965	2000.801	21762.5	2000.801	19932.5
2000.802	23762.5	2000.802	23597.5	2000.802	22540	2000.802	20745
2000.803	24005	2000.803	23860	2000.803	22915	2000.803	21265
2000.804	23950	2000.804	23807.5	2000.804	22930	2000.804	21472.5
2000.805	23620	2000.805	23425	2000.805	22712.5	2000.805	21380
2000.806	23360	2000.806	23047.5	2000.806	22272.5	2000.806	21090
2000.807	22852.5	2000.807	22515	2000.807	21720	2000.807	20745
2000.808	22315	2000.808	21880	2000.808	21017.5	2000.808	20335
2000.809	21747.5	2000.809	21235	2000.809	20265	2000.809	19755
2000.81	21027.5	2000.81	20345	2000.81	19465	2000.81	19147.5
2000.811	20315	2000.811	19607.5	2000.811	18622.5	2000.811	18505
2000.812	19442.5	2000.812	18742.5	2000.812	17735	2000.812	17762.5
2000.813	18692.5	2000.813	17957.5	2000.813	16932.5	2000.813	17030
2000.814	17930	2000.814	17195	2000.814	16117.5	2000.814	16367.5
2000.815	17070	2000.815	16407.5	2000.815	15285	2000.815	15720
2000.816	16227.5	2000.816	15577.5	2000.816	14452.5	2000.816	14955
2000.817	15492.5	2000.817	14742.5	2000.817	13657.5	2000.817	14337.5
2000.818	14640	2000.818	13992.5	2000.818	12927.5	2000.818	13610
2000.819	13842.5	2000.819	13252.5	2000.819	12225	2000.819	13010
2000.82	13145	2000.82	12517.5	2000.82	11597.5	2000.82	12342.5
2000.821	12462.5	2000.821	11840	2000.821	10917.5	2000.821	11780
2000.822	11840	2000.822	11167.5	2000.822	10342.5	2000.822	11130
2000.823	11235	2000.823	10565	2000.823	9817.5	2000.823	10595
2000.824	10592.5	2000.824	10040	2000.824	9250	2000.824	10082.5
2000.825	10120	2000.825	9482.5	2000.825	8750	2000.825	9597.5
2000.826	9717.5	2000.826	9072.5	2000.826	8285	2000.826	9112.5
2000.827	9335	2000.827	8765	2000.827	7865	2000.827	8815
2000.828	8907.5	2000.828	8400	2000.828	7457.5	2000.828	8470
2000.829	8662.5	2000.829	8110	2000.829	7062.5	2000.829	8115
2000.83	8305	2000.83	7762.5	2000.83	6685	2000.83	7767.5
2000.831	8020	2000.831	7470	2000.831	6305	2000.831	7505
2000.832	7612.5	2000.832	7150	2000.832	5942.5	2000.832	7182.5
2000.833	7340	2000.833	6815	2000.833	5580	2000.833	6900
2000.834	7005	2000.834	6560	2000.834	5342.5	2000.834	6625
2000.835	6650	2000.835	6162.5	2000.835	4970	2000.835	6305
2000.836	6240	2000.836	5835	2000.836	4730	2000.836	5972.5
2000.837	5840	2000.837	5430	2000.837	4410	2000.837	5717.5
2000.838	5442.5	2000.838	5100	2000.838	4080	2000.838	5392.5
2000.839	5035	2000.839	4687.5	2000.839	3840	2000.839	5117.5
2000.84	4682.5	2000.84	4412.5	2000.84	3597.5	2000.84	4865
2000.841	4430	2000.841	4087.5	2000.841	3325	2000.841	4537.5
2000.842	4157.5	2000.842	3847.5	2000.842	3137.5	2000.842	4375
2000.843	3937.5	2000.843	3565	2000.843	2877.5	2000.843	4155
2000.844	3705	2000.844	3295	2000.844	2705	2000.844	3882.5
2000.845	3547.5	2000.845	3055	2000.845	2412.5	2000.845	3637.5
2000.846	3392.5	2000.846	2930	2000.846	2292.5	2000.846	3520
2000.847	3267.5	2000.847	2835	2000.847	2175	2000.847	3400
2000.848	3227.5	2000.848	2707.5	2000.848	2042.5	2000.848	3265
2000.849	3155	2000.849	2590	2000.849	1875	2000.849	3122.5
2000.85	2982.5	2000.85	2422.5	2000.85	1742.5	2000.85	3015
2000.851	2877.5	2000.851	2322.5	2000.851	1560	2000.851	2860
2000.852	2777.5	2000.852	2175	2000.852	1377.5	2000.852	2660
2000.853	2655	2000.853	1935	2000.853	1127.5	2000.853	2510
2000.854	2407.5	2000.854	1745	2000.854	930	2000.854	2282.5
2000.855	2152.5	2000.855	1537.5	2000.855	712.5	2000.855	2062.5
2000.856	1870	2000.856	1267.5	2000.856	482.5	2000.856	1810
2000.857	1672.5	2000.857	1062.5	2000.857	267.5	2000.857	1615
2000.858	1285	2000.858	732.5	2000.858	45	2000.858	1350
2000.859	1012.5	2000.859	387.5	2000.859	-177.5	2000.859	1072.5
2000.86	760	2000.86	130	2000.86	-335	2000.86	880
2000.861	455	2000.861	-155	2000.861	-590	2000.861	607.5
2000.862	222.5	2000.862	-457.5	2000.862	-697.5	2000.862	340
2000.863	-17.5	2000.863	-707.5	2000.863	-885	2000.863	130
2000.864	-287.5	2000.864	-920	2000.864	-1070	2000.864	-97.5
2000.865	-490	2000.865	-1107.5	2000.865	-1257.5	2000.865	-320
2000.866	-575	2000.866	-1205	2000.866	-1395	2000.866	-497.5
2000.867	-725	2000.867	-1312.5	2000.867	-1535	2000.867	-622.5
2000.868	-745	2000.868	-1387.5	2000.868	-1652.5	2000.868	-682.5
2000.869	-850	2000.869	-1415	2000.869	-1802.5	2000.869	-780
2000.87	-970	2000.87	-1562.5	2000.87	-1905	2000.87	-982.5
2000.871	-1037.5	2000.871	-1645	2000.871	-2067.5	2000.871	-1102.5
2000.872	-1142.5	2000.872	-1745	2000.872	-2172.5	2000.872	-1245
2000.873	-1370	2000.873	-1872.5	2000.873	-2390	2000.873	-1390
2000.874	-1350	2000.874	-2000	2000.874	-2502.5	2000.874	-1507.5
2000.875	-1630	2000.875	-2147.5	2000.875	-2725	2000.875	-1735
2000.876	-1855	2000.876	-2377.5	2000.876	-2835	2000.876	-1985
2000.877	-2055	2000.877	-2470	2000.877	-3005	2000.877	-2095
2000.878	-2342.5	2000.878	-2782.5	2000.878	-3157.5	2000.878	-2300
2000.879	-2632.5	2000.879	-3042.5	2000.879	-3327.5	2000.879	-2545
2000.88	-2690	2000.88	-3142.5	2000.88	-3380	2000.88	-2560
2000.881	-2890	2000.881	-3322.5	2000.881	-3522.5	2000.881	-2785
2000.882	-3062.5	2000.882	-3470	2000.882	-3612.5	2000.882	-2900
2000.883	-3255	2000.883	-3630	2000.883	-3797.5	2000.883	-3042.5
2000.884	-3362.5	2000.884	-3712.5	2000.884	-3865	2000.884	-3195
2000.885	-3422.5	2000.885	-3885	2000.885	-3947.5	2000.885	-3312.5
2000.886	-3397.5	2000.886	-3875	2000.886	-4027.5	2000.886	-3325
2000.887	-3447.5	2000.887	-3945	2000.887	-4085	2000.887	-3500
2000.888	-3447.5	2000.888	-3890	2000.888	-4105	2000.888	-3482.5
2000.889	-3412.5	2000.889	-3810	2000.889	-4115	2000.889	-3480
2000.89	-3430	2000.89	-3835	2000.89	-4192.5	2000.89	-3465
2000.891	-3322.5	2000.891	-3800	2000.891	-4232.5	2000.891	-3485
2000.892	-3347.5	2000.892	-3782.5	2000.892	-4230	2000.892	-3482.5
2000.893	-3452.5	2000.893	-3802.5	2000.893	-4265	2000.893	-3550
2000.894	-3427.5	2000.894	-3837.5	2000.894	-4355	2000.894	-3527.5
2000.895	-3505	2000.895	-3922.5	2000.895	-4405	2000.895	-3610
2000.896	-3677.5	2000.896	-4092.5	2000.896	-4485	2000.896	-3757.5
2000.897	-3800	2000.897	-4172.5	2000.897	-4482.5	2000.897	-3817.5
2000.898	-3947.5	2000.898	-4182.5	2000.898	-4607.5	2000.898	-3875
2000.899	-4045	2000.899	-4350	2000.899	-4675	2000.899	-3920
2000.9	-4177.5	2000.9	-4505	2000.9	-4752.5	2000.9	-4040
2000.901	-4335	2000.901	-4570	2000.901	-4772.5	2000.901	-4185
2000.902	-4332.5	2000.902	-4650	2000.902	-4840	2000.902	-4240
2000.903	-4350	2000.903	-4762.5	2000.903	-4890	2000.903	-4257.5
2000.904	-4415	2000.904	-4780	2000.904	-4905	2000.904	-4300
2000.905	-4362.5	2000.905	-4792.5	2000.905	-4917.5	2000.905	-4350
2000.906	-4300	2000.906	-4702.5	2000.906	-4927.5	2000.906	-4287.5
2000.907	-4180	2000.907	-4640	2000.907	-4952.5	2000.907	-4270
2000.908	-4135	2000.908	-4555	2000.908	-4925	2000.908	-4237.5
2000.909	-3980	2000.909	-4430	2000.909	-4832.5	2000.909	-4147.5
2000.91	-3907.5	2000.91	-4345	2000.91	-4832.5	2000.91	-4100
2000.911	-3797.5	2000.911	-4255	2000.911	-4787.5	2000.911	-3972.5
2000.912	-3757.5	2000.912	-4250	2000.912	-4785	2000.912	-3955
2000.913	-3700	2000.913	-4205	2000.913	-4787.5	2000.913	-3895
2000.914	-3647.5	2000.914	-4195	2000.914	-4787.5	2000.914	-3947.5
2000.915	-3655	2000.915	-4147.5	2000.915	-4790	2000.915	-3950
2000.916	-3762.5	2000.916	-4217.5	2000.916	-4832.5	2000.916	-3997.5
2000.917	-3780	2000.917	-4275	2000.917	-4805	2000.917	-3985
2000.918	-3962.5	2000.918	-4385	2000.918	-4867.5	2000.918	-4025
2000.919	-4000	2000.919	-4462.5	2000.919	-4887.5	2000.919	-4102.5
2000.92	-4112.5	2000.92	-4537.5	2000.92	-4890	2000.92	-4102.5
2000.921	-4227.5	2000.921	-4657.5	2000.921	-4917.5	2000.921	-4187.5
2000.922	-4207.5	2000.922	-4625	2000.922	-4970	2000.922	-4222.5
2000.923	-4190	2000.923	-4650	2000.923	-4895	2000.923	-4190
2000.924	-4272.5	2000.924	-4727.5	2000.924	-4960	2000.924	-4232.5
2000.925	-4190	2000.925	-4677.5	2000.925	-4927.5	2000.925	-4147.5
2000.926	-4075	2000.926	-4622.5	2000.926	-4885	2000.926	-4122.5
2000.927	-3992.5	2000.927	-4552.5	2000.927	-4857.5	2000.927	-4057.5
2000.928	-3865	2000.928	-4450	2000.928	-4755	2000.928	-4000
2000.929	-3760	2000.929	-4387.5	2000.929	-4712.5	2000.929	-3917.5
2000.93	-3707.5	2000.93	-4312.5	2000.93	-4675	2000.93	-3907.5
2000.931	-3567.5	2000.931	-4205	2000.931	-4677.5	2000.931	-3787.5
2000.932	-3552.5	2000.932	-4162.5	2000.932	-4625	2000.932	-3717.5
2000.933	-3510	2000.933	-4102.5	2000.933	-4595	2000.933	-3665
2000.934	-3395	2000.934	-4017.5	2000.934	-4572.5	2000.934	-3665
2000.935	-3422.5	2000.935	-4097.5	2000.935	-4575	2000.935	-3622.5
2000.936	-3550	2000.936	-4170	2000.936	-4625	2000.936	-3672.5
2000.937	-3595	2000.937	-4262.5	2000.937	-4662.5	2000.937	-3747.5
2000.938	-3757.5	2000.938	-4320	2000.938	-4662.5	2000.938	-3777.5
2000.939	-3772.5	2000.939	-4387.5	2000.939	-4705	2000.939	-3870
2000.94	-3902.5	2000.94	-4480	2000.94	-4722.5	2000.94	-3857.5
2000.941	-4005	2000.941	-4512.5	2000.941	-4675	2000.941	-3917.5
2000.942	-4010	2000.942	-4595	2000.942	-4695	2000.942	-3967.5
2000.943	-4020	2000.943	-4595	2000.943	-4635	2000.943	-3962.5
2000.944	-4050	2000.944	-4617.5	2000.944	-4687.5	2000.944	-4012.5
2000.945	-3982.5	2000.945	-4635	2000.945	-4625	2000.945	-3960
2000.946	-3845	2000.946	-4477.5	2000.946	-4542.5	2000.946	-3880
2000.947	-3705	2000.947	-4432.5	2000.947	-4482.5	2000.947	-3837.5
2000.948	-3515	2000.948	-4315	2000.948	-4420	2000.948	-3695
2000.949	-3500	2000.949	-4137.5	2000.949	-4315	2000.949	-3587.5
2000.95	-3340	2000.95	-4090	2000.95	-4300	2000.95	-3497.5
2000.951	-3292.5	2000.951	-4042.5	2000.951	-4277.5	2000.951	-3472.5
2000.952	-3195	2000.952	-3992.5	2000.952	-4185	2000.952	-3452.5
2000.953	-3165	2000.953	-3902.5	2000.953	-4195	2000.953	-3420
2000.954	-3195	2000.954	-3902.5	2000.954	-4195	2000.954	-3417.5
2000.955	-3207.5	2000.955	-3842.5	2000.955	-4095	2000.955	-3337.5
2000.956	-3255	2000.956	-3940	2000.956	-4140	2000.956	-3362.5
2000.957	-3327.5	2000.957	-4040	2000.957	-4105	2000.957	-3415
2000.958	-3417.5	2000.958	-4100	2000.958	-4085	2000.958	-3465
2000.959	-3510	2000.959	-4157.5	2000.959	-4125	2000.959	-3482.5
2000.96	-3565	2000.96	-4172.5	2000.96	-4087.5	2000.96	-3467.5
2000.961	-3725	2000.961	-4267.5	2000.961	-4155	2000.961	-3540
2000.962	-3750	2000.962	-4295	2000.962	-4120	2000.962	-3562.5
2000.963	-3727.5	2000.963	-4267.5	2000.963	-4057.5	2000.963	-3612.5
2000.964	-3695	2000.964	-4290	2000.964	-4057.5	2000.964	-3537.5
2000.965	-3667.5	2000.965	-4230	2000.965	-4047.5	2000.965	-3442.5
2000.966	-3567.5	2000.966	-4122.5	2000.966	-3985	2000.966	-3405
2000.967	-3447.5	2000.967	-4095	2000.967	-3902.5	2000.967	-3357.5
2000.968	-3325	2000.968	-3977.5	2000.968	-3842.5	2000.968	-3242.5
2000.969	-3295	2000.969	-3932.5	2000.969	-3882.5	2000.969	-3260
2000.97	-3255	2000.97	-3867.5	2000.97	-3812.5	2000.97	-3202.5
2000.971	-3110	2000.971	-3770	2000.971	-3770	2000.971	-3145
2000.972	-3027.5	2000.972	-3652.5	2000.972	-3727.5	2000.972	-3112.5
2000.973	-3030	2000.973	-3645	2000.973	-3725	2000.973	-3105
2000.974	-2990	2000.974	-3615	2000.974	-3717.5	2000.974	-3155
2000.975	-3075	2000.975	-3665	2000.975	-3697.5	2000.975	-3120
2000.976	-3122.5	2000.976	-3685	2000.976	-3675	2000.976	-3182.5
2000.977	-3177.5	2000.977	-3742.5	2000.977	-3662.5	2000.977	-3170
2000.978	-3320	2000.978	-3842.5	2000.978	-3667.5	2000.978	-3247.5
2000.979	-3392.5	2000.979	-3880	2000.979	-3632.5	2000.979	-3242.5
2000.98	-3477.5	2000.98	-3900	2000.98	-3622.5	2000.98	-3255
2000.981	-3530	2000.981	-3932.5	2000.981	-3612.5	2000.981	-3332.5
2000.982	-3627.5	2000.982	-3985	2000.982	-3582.5	2000.982	-3325
2000.983	-3602.5	2000.983	-3947.5	2000.983	-3567.5	2000.983	-3385
2000.984	-3710	2000.984	-4052.5	2000.984	-3567.5	2000.984	-3387.5
2000.985	-3580	2000.985	-4007.5	2000.985	-3562.5	2000.985	-3312.5
2000.986	-3495	2000.986	-3992.5	2000.986	-3517.5	2000.986	-3302.5
2000.987	-3427.5	2000.987	-3885	2000.987	-3490	2000.987	-3235
2000.988	-3292.5	2000.988	-3770	2000.988	-3417.5	2000.988	-3125
2000.989	-3152.5	2000.989	-3755	2000.989	-3337.5	2000.989	-3067.5
2000.99	-3160	2000.99	-3682.5	2000.99	-3342.5	2000.99	-3087.5
2000.991	-3007.5	2000.991	-3490	2000.991	-3252.5	2000.991	-3010
2000.992	-2930	2000.992	-3457.5	2000.992	-3220	2000.992	-2915
2000.993	-2870	2000.993	-3410	2000.993	-3210	2000.993	-2885
2000.994	-2865	2000.994	-3332.5	2000.994	-3192.5	2000.994	-2882.5
2000.995	-2920	2000.995	-3277.5	2000.995	-3127.5	2000.995	-2915
2000.996	-3020	2000.996	-3355	2000.996	-3180	2000.996	-2947.5
2000.997	-3087.5	2000.997	-3465	2000.997	-3175	2000.997	-2922.5
2000.998	-3182.5	2000.998	-3520	2000.998	-3177.5	2000.998	-2965
2000.999	-3382.5	2000.999	-3667.5	2000.999	-3200	2000.999	-3070
2001	-3490	2001	-3745	2001	-3227.5	2001	-3070
2001.001	-3582.5	2001.001	-3795	2001.001	-3302.5	2001.001	-3162.5
2001.002	-3640	2001.002	-3822.5	2001.002	-3262.5	2001.002	-3220
2001.003	-3635	2001.003	-3840	2001.003	-3275	2001.003	-3257.5
2001.004	-3585	2001.004	-3882.5	2001.004	-3267.5	2001.004	-3177.5
2001.005	-3590	2001.005	-3872.5	2001.005	-3205	2001.005	-3132.5
2001.006	-3470	2001.006	-3740	2001.006	-3157.5	2001.006	-3097.5
2001.007	-3342.5	2001.007	-3645	2001.007	-3120	2001.007	-3017.5
2001.008	-3235	2001.008	-3530	2001.008	-3027.5	2001.008	-2970
2001.009	-3132.5	2001.009	-3425	2001.009	-2992.5	2001.009	-2877.5
2001.01	-3087.5	2001.01	-3335	2001.01	-2977.5	2001.01	-2875
2001.011	-2962.5	2001.011	-3220	2001.011	-2947.5	2001.011	-2805
2001.012	-2970	2001.012	-3177.5	2001.012	-2910	2001.012	-2752.5
2001.013	-2952.5	2001.013	-3115	2001.013	-2927.5	2001.013	-2715
2001.014	-2927.5	2001.014	-3067.5	2001.014	-2872.5	2001.014	-2702.5
2001.015	-2952.5	2001.015	-3017.5	2001.015	-2890	2001.015	-2662.5
2001.016	-2962.5	2001.016	-2985	2001.016	-2835	2001.016	-2615
2001.017	-3050	2001.017	-3105	2001.017	-2777.5	2001.017	-2710
2001.018	-3165	2001.018	-3172.5	2001.018	-2825	2001.018	-2817.5
2001.019	-3322.5	2001.019	-3287.5	2001.019	-2907.5	2001.019	-2872.5
2001.02	-3350	2001.02	-3345	2001.02	-2837.5	2001.02	-2925
2001.021	-3447.5	2001.021	-3397.5	2001.021	-2887.5	2001.021	-2990
2001.022	-3392.5	2001.022	-3457.5	2001.022	-2892.5	2001.022	-3025
2001.023	-3465	2001.023	-3437.5	2001.023	-2857.5	2001.023	-3020
2001.024	-3485	2001.024	-3402.5	2001.024	-2855	2001.024	-2997.5
2001.025	-3442.5	2001.025	-3400	2001.025	-2847.5	2001.025	-3037.5
2001.026	-3455	2001.026	-3335	2001.026	-2797.5	2001.026	-3020
2001.027	-3262.5	2001.027	-3305	2001.027	-2760	2001.027	-3060
2001.028	-3135	2001.028	-3132.5	2001.028	-2697.5	2001.028	-2942.5
2001.029	-3087.5	2001.029	-3062.5	2001.029	-2645	2001.029	-2892.5
2001.03	-2977.5	2001.03	-2982.5	2001.03	-2572.5	2001.03	-2860
2001.031	-2917.5	2001.031	-2890	2001.031	-2467.5	2001.031	-2780
2001.032	-2845	2001.032	-2812.5	2001.032	-2442.5	2001.032	-2665
2001.033	-2835	2001.033	-2725	2001.033	-2362.5	2001.033	-2595
2001.034	-2692.5	2001.034	-2685	2001.034	-2265	2001.034	-2560
2001.035	-2687.5	2001.035	-2640	2001.035	-2207.5	2001.035	-2577.5
2001.036	-2737.5	2001.036	-2687.5	2001.036	-2207.5	2001.036	-2622.5
2001.037	-2875	2001.037	-2785	2001.037	-2242.5	2001.037	-2690
2001.038	-3032.5	2001.038	-2907.5	2001.038	-2305	2001.038	-2730
2001.039	-3202.5	2001.039	-3047.5	2001.039	-2380	2001.039	-2817.5
2001.04	-3240	2001.04	-3125	2001.04	-2405	2001.04	-2900
2001.041	-3317.5	2001.041	-3215	2001.041	-2450	2001.041	-2957.5
2001.042	-3392.5	2001.042	-3335	2001.042	-2400	2001.042	-2952.5
2001.043	-3450	2001.043	-3317.5	2001.043	-2402.5	2001.043	-2967.5
2001.044	-3450	2001.044	-3302.5	2001.044	-2380	2001.044	-2967.5
2001.045	-3380	2001.045	-3350	2001.045	-2312.5	2001.045	-2920
2001.046	-3275	2001.046	-3230	2001.046	-2295	2001.046	-2960
2001.047	-3110	2001.047	-3102.5	2001.047	-2265	2001.047	-2890
2001.048	-3040	2001.048	-2965	2001.048	-2180	2001.048	-2755
2001.049	-2860	2001.049	-2862.5	2001.049	-2147.5	2001.049	-2700
2001.05	-2805	2001.05	-2752.5	2001.05	-2077.5	2001.05	-2652.5
2001.051	-2680	2001.051	-2670	2001.051	-2067.5	2001.051	-2532.5
2001.052	-2700	2001.052	-2637.5	2001.052	-2047.5	2001.052	-2495
2001.053	-2600	2001.053	-2510	2001.053	-2012.5	2001.053	-2490
2001.054	-2597.5	2001.054	-2542.5	2001.054	-2007.5	2001.054	-2442.5
2001.055	-2662.5	2001.055	-2565	2001.055	-2002.5	2001.055	-2420
2001.056	-2752.5	2001.056	-2642.5	2001.056	-2012.5	2001.056	-2505
2001.057	-2807.5	2001.057	-2700	2001.057	-2017.5	2001.057	-2550
2001.058	-2865	2001.058	-2805	2001.058	-2042.5	2001.058	-2615
2001.059	-3010	2001.059	-2897.5	2001.059	-2072.5	2001.059	-2627.5
2001.06	-3077.5	2001.06	-2987.5	2001.06	-2147.5	2001.06	-2790
2001.061	-3162.5	2001.061	-3007.5	2001.061	-2160	2001.061	-2790
2001.062	-3230	2001.062	-3050	2001.062	-2130	2001.062	-2792.5
2001.063	-3262.5	2001.063	-3000	2001.063	-2087.5	2001.063	-2762.5
2001.064	-3195	2001.064	-2977.5	2001.064	-2055	2001.064	-2700
2001.065	-3115	2001.065	-2900	2001.065	-1977.5	2001.065	-2662.5
2001.066	-2997.5	2001.066	-2870	2001.066	-1977.5	2001.066	-2572.5
2001.067	-2925	2001.067	-2737.5	2001.067	-1922.5	2001.067	-2600
2001.068	-2752.5	2001.068	-2622.5	2001.068	-1867.5	2001.068	-2540
2001.069	-2712.5	2001.069	-2565	2001.069	-1857.5	2001.069	-2405
2001.07	-2600	2001.07	-2405	2001.07	-1837.5	2001.07	-2445
2001.071	-2500	2001.071	-2377.5	2001.071	-1810	2001.071	-2325
2001.072	-2417.5	2001.072	-2332.5	2001.072	-1810	2001.072	-2357.5
2001.073	-2435	2001.073	-2257.5	2001.073	-1797.5	2001.073	-2260
2001.074	-2452.5	2001.074	-2257.5	2001.074	-1765	2001.074	-2257.5
2001.075	-2327.5	2001.075	-2187.5	2001.075	-1777.5	2001.075	-2235
2001.076	-2477.5	2001.076	-2225	2001.076	-1772.5	2001.076	-2255
2001.077	-2545	2001.077	-2277.5	2001.077	-1777.5	2001.077	-2250
2001.078	-2652.5	2001.078	-2420	2001.078	-1807.5	2001.078	-2367.5
2001.079	-2702.5	2001.079	-2512.5	2001.079	-1850	2001.079	-2475
2001.08	-2800	2001.08	-2542.5	2001.08	-1762.5	2001.08	-2497.5
2001.081	-2880	2001.081	-2632.5	2001.081	-1880	2001.081	-2575
2001.082	-2972.5	2001.082	-2595	2001.082	-1825	2001.082	-2527.5
2001.083	-3042.5	2001.083	-2645	2001.083	-1877.5	2001.083	-2542.5
2001.084	-2880	2001.084	-2697.5	2001.084	-1897.5	2001.084	-2600
2001.085	-2857.5	2001.085	-2612.5	2001.085	-1835	2001.085	-2522.5
2001.086	-2717.5	2001.086	-2535	2001.086	-1795	2001.086	-2450
2001.087	-2592.5	2001.087	-2462.5	2001.087	-1687.5	2001.087	-2367.5
2001.088	-2550	2001.088	-2285	2001.088	-1635	2001.088	-2320
2001.089	-2317.5	2001.089	-2095	2001.089	-1530	2001.089	-2147.5
2001.09	-2292.5	2001.09	-2090	2001.09	-1575	2001.09	-2160
2001.091	-2222.5	2001.091	-2010	2001.091	-1502.5	2001.091	-2080
2001.092	-2115	2001.092	-1955	2001.092	-1495	2001.092	-2070
2001.093	-2137.5	2001.093	-1922.5	2001.093	-1535	2001.093	-2055
2001.094	-2025	2001.094	-1872.5	2001.094	-1525	2001.094	-2045
2001.095	-2147.5	2001.095	-1920	2001.095	-1522.5	2001.095	-2047.5
2001.096	-2252.5	2001.096	-1960	2001.096	-1602.5	2001.096	-2115
2001.097	-2250	2001.097	-1977.5	2001.097	-1515	2001.097	-2097.5
2001.098	-2432.5	2001.098	-2095	2001.098	-1600	2001.098	-2130
2001.099	-2455	2001.099	-2120	2001.099	-1620	2001.099	-2175
2001.1	-2512.5	2001.1	-2165	2001.1	-1597.5	2001.1	-2277.5
2001.101	-2705	2001.101	-2282.5	2001.101	-1615	2001.101	-2290
2001.102	-2692.5	2001.102	-2302.5	2001.102	-1657.5	2001.102	-2340
2001.103	-2652.5	2001.103	-2382.5	2001.103	-1647.5	2001.103	-2287.5
2001.104	-2710	2001.104	-2392.5	2001.104	-1657.5	2001.104	-2360
2001.105	-2607.5	2001.105	-2305	2001.105	-1592.5	2001.105	-2262.5
2001.106	-2365	2001.106	-2175	2001.106	-1522.5	2001.106	-2200
2001.107	-2290	2001.107	-2110	2001.107	-1497.5	2001.107	-2112.5
2001.108	-2170	2001.108	-1947.5	2001.108	-1372.5	2001.108	-2042.5
2001.109	-2042.5	2001.109	-1832.5	2001.109	-1420	2001.109	-2012.5
2001.11	-1992.5	2001.11	-1775	2001.11	-1327.5	2001.11	-1890
2001.111	-1867.5	2001.111	-1675	2001.111	-1255	2001.111	-1815
2001.112	-1792.5	2001.112	-1555	2001.112	-1230	2001.112	-1815
2001.113	-1740	2001.113	-1615	2001.113	-1272.5	2001.113	-1777.5
2001.114	-1780	2001.114	-1607.5	2001.114	-1290	2001.114	-1760
2001.115	-1862.5	2001.115	-1562.5	2001.115	-1287.5	2001.115	-1730
2001.116	-1887.5	2001.116	-1577.5	2001.116	-1332.5	2001.116	-1822.5
2001.117	-2007.5	2001.117	-1655	2001.117	-1350	2001.117	-1920
2001.118	-2027.5	2001.118	-1777.5	2001.118	-1410	2001.118	-1992.5
2001.119	-2085	2001.119	-1790	2001.119	-1400	2001.119	-1927.5
2001.12	-2170	2001.12	-1837.5	2001.12	-1407.5	2001.12	-1967.5
2001.121	-2295	2001.121	-1872.5	2001.121	-1412.5	2001.121	-2072.5
2001.122	-2367.5	2001.122	-2030	2001.122	-1505	2001.122	-2047.5
2001.123	-2320	2001.123	-2007.5	2001.123	-1462.5	2001.123	-2070
2001.124	-2287.5	2001.124	-1942.5	2001.124	-1397.5	2001.124	-2040
2001.125	-2245	2001.125	-2007.5	2001.125	-1447.5	2001.125	-2010
2001.126	-2245	2001.126	-1927.5	2001.126	-1430	2001.126	-1980
2001.127	-2065	2001.127	-1852.5	2001.127	-1392.5	2001.127	-1872.5
2001.128	-1972.5	2001.128	-1687.5	2001.128	-1262.5	2001.128	-1780
2001.129	-1870	2001.129	-1542.5	2001.129	-1255	2001.129	-1747.5
2001.13	-1775	2001.13	-1482.5	2001.13	-1287.5	2001.13	-1682.5
2001.131	-1627.5	2001.131	-1370	2001.131	-1217.5	2001.131	-1580
2001.132	-1637.5	2001.132	-1377.5	2001.132	-1197.5	2001.132	-1622.5
2001.133	-1555	2001.133	-1235	2001.133	-1155	2001.133	-1530
2001.134	-1500	2001.134	-1222.5	2001.134	-1135	2001.134	-1492.5
2001.135	-1545	2001.135	-1287.5	2001.135	-1177.5	2001.135	-1542.5
2001.136	-1655	2001.136	-1357.5	2001.136	-1187.5	2001.136	-1642.5
2001.137	-1715	2001.137	-1362.5	2001.137	-1250	2001.137	-1582.5
2001.138	-1822.5	2001.138	-1462.5	2001.138	-1237.5	2001.138	-1702.5
2001.139	-1900	2001.139	-1610	2001.139	-1280	2001.139	-1790
2001.14	-1952.5	2001.14	-1632.5	2001.14	-1287.5	2001.14	-1762.5
2001.141	-2037.5	2001.141	-1672.5	2001.141	-1310	2001.141	-1840
2001.142	-2052.5	2001.142	-1700	2001.142	-1337.5	2001.142	-1815
2001.143	-2045	2001.143	-1740	2001.143	-1362.5	2001.143	-1847.5
2001.144	-2102.5	2001.144	-1780	2001.144	-1410	2001.144	-1930
2001.145	-2000	2001.145	-1712.5	2001.145	-1340	2001.145	-1897.5
2001.146	-2050	2001.146	-1737.5	2001.146	-1402.5	2001.146	-1912.5
2001.147	-2102.5	2001.147	-1827.5	2001.147	-1562.5	2001.147	-2047.5
2001.148	-2162.5	2001.148	-1840	2001.148	-1667.5	2001.148	-2160
2001.149	-2125	2001.149	-1812.5	2001.149	-1707.5	2001.149	-2150
2001.15	-2350	2001.15	-2037.5	2001.15	-2060	2001.15	-2412.5
2001.151	-2495	2001.151	-2232.5	2001.151	-2235	2001.151	-2592.5
2001.152	-2520	2001.152	-2170	2001.152	-2315	2001.152	-2665
2001.153	-2247.5	2001.153	-2000	2001.153	-2012.5	2001.153	-2395
2001.154	-1765	2001.154	-1472.5	2001.154	-1497.5	2001.154	-1912.5
2001.155	-1377.5	2001.155	-1090	2001.155	-1045	2001.155	-1447.5
2001.156	-1150	2001.156	-745	2001.156	-725	2001.156	-1155
2001.157	-817.5	2001.157	-412.5	2001.157	-337.5	2001.157	-802.5
2001.158	-497.5	2001.158	-147.5	2001.158	50	2001.158	-432.5
2001.159	-587.5	2001.159	-252.5	2001.159	-67.5	2001.159	-527.5
2001.16	-910	2001.16	-625	2001.16	-470	2001.16	-842.5
2001.161	-990	2001.161	-670	2001.161	-457.5	2001.161	-862.5
2001.162	-1505	2001.162	-1152.5	2001.162	-995	2001.162	-1325
2001.163	-2522.5	2001.163	-2267.5	2001.163	-2117.5	2001.163	-2447.5
2001.164	-2975	2001.164	-2747.5	2001.164	-2545	2001.164	-2960
2001.165	-1850	2001.165	-1502.5	2001.165	-1275	2001.165	-1692.5
2001.166	-1672.5	2001.166	-1337.5	2001.166	-1242.5	2001.166	-1545
2001.167	-1632.5	2001.167	-1325	2001.167	-1262.5	2001.167	-1542.5
2001.168	-1637.5	2001.168	-1345	2001.168	-1315	2001.168	-1560
2001.169	-1302.5	2001.169	-1155	2001.169	-1125	2001.169	-1352.5
2001.17	-1652.5	2001.17	-1382.5	2001.17	-1480	2001.17	-1657.5
2001.171	-1685	2001.171	-1497.5	2001.171	-1655	2001.171	-1750
2001.172	-1722.5	2001.172	-1492.5	2001.172	-1667.5	2001.172	-1875
2001.173	-1972.5	2001.173	-1795	2001.173	-1995	2001.173	-2167.5
2001.174	-2692.5	2001.174	-2425	2001.174	-2725	2001.174	-2837.5
2001.175	-3005	2001.175	-2682.5	2001.175	-3055	2001.175	-3177.5
2001.176	-3440	2001.176	-3120	2001.176	-3455	2001.176	-3570
2001.177	-3687.5	2001.177	-3360	2001.177	-3640	2001.177	-3832.5
2001.178	-3817.5	2001.178	-3370	2001.178	-3695	2001.178	-3892.5
2001.179	-3930	2001.179	-3432.5	2001.179	-3650	2001.179	-3870
2001.18	-3925	2001.18	-3512.5	2001.18	-3577.5	2001.18	-3870
2001.181	-4002.5	2001.181	-3507.5	2001.181	-3540	2001.181	-3867.5
2001.182	-3945	2001.182	-3475	2001.182	-3492.5	2001.182	-3790
2001.183	-3810	2001.183	-3410	2001.183	-3427.5	2001.183	-3692.5
2001.184	-3745	2001.184	-3392.5	2001.184	-3357.5	2001.184	-3700
2001.185	-3700	2001.185	-3232.5	2001.185	-3237.5	2001.185	-3572.5
2001.186	-3435	2001.186	-3082.5	2001.186	-3070	2001.186	-3395
2001.187	-3230	2001.187	-2867.5	2001.187	-2937.5	2001.187	-3295
2001.188	-3120	2001.188	-2715	2001.188	-2820	2001.188	-3202.5
2001.189	-2822.5	2001.189	-2545	2001.189	-2737.5	2001.189	-2920
2001.19	-2740	2001.19	-2410	2001.19	-2650	2001.19	-2825
2001.191	-2585	2001.191	-2235	2001.191	-2530	2001.191	-2720
2001.192	-2480	2001.192	-2182.5	2001.192	-2437.5	2001.192	-2580
2001.193	-2372.5	2001.193	-2027.5	2001.193	-2385	2001.193	-2505
2001.194	-2247.5	2001.194	-1907.5	2001.194	-2272.5	2001.194	-2420
2001.195	-2205	2001.195	-1860	2001.195	-2255	2001.195	-2415
2001.196	-2242.5	2001.196	-1892.5	2001.196	-2172.5	2001.196	-2362.5
2001.197	-2242.5	2001.197	-1835	2001.197	-2115	2001.197	-2392.5
2001.198	-2287.5	2001.198	-1892.5	2001.198	-2140	2001.198	-2357.5
2001.199	-2367.5	2001.199	-1937.5	2001.199	-2122.5	2001.199	-2407.5
2001.2	-2335	2001.2	-1997.5	2001.2	-2182.5	2001.2	-2412.5
2001.201	-2422.5	2001.201	-2067.5	2001.201	-2207.5	2001.201	-2437.5
2001.202	-2495	2001.202	-2070	2001.202	-2155	2001.202	-2390
2001.203	-2427.5	2001.203	-2005	2001.203	-2092.5	2001.203	-2377.5
2001.204	-2427.5	2001.204	-1995	2001.204	-2055	2001.204	-2377.5
2001.205	-2370	2001.205	-1947.5	2001.205	-2047.5	2001.205	-2340
2001.206	-2265	2001.206	-1837.5	2001.206	-1950	2001.206	-2260
2001.207	-2152.5	2001.207	-1682.5	2001.207	-1935	2001.207	-2212.5
2001.208	-2045	2001.208	-1657.5	2001.208	-1897.5	2001.208	-2182.5
2001.209	-2007.5	2001.209	-1690	2001.209	-1922.5	2001.209	-2230
2001.21	-2440	2001.21	-2137.5	2001.21	-2452.5	2001.21	-2707.5
2001.211	-2922.5	2001.211	-2652.5	2001.211	-3202.5	2001.211	-3137.5
2001.212	-2537.5	2001.212	-2450	2001.212	-3237.5	2001.212	-2937.5
2001.213	-887.5	2001.213	-1432.5	2001.213	-2960	2001.213	-2115
2001.214	1755	2001.214	170	2001.214	-2110	2001.214	-727.5
2001.215	7080	2001.215	4822.5	2001.215	2190	2001.215	3552.5
2001.216	15965	2001.216	14042.5	2001.216	12347.5	2001.216	12432.5
2001.217	24380	2001.217	24250	2001.217	24680	2001.217	21817.5
2001.218	29565	2001.218	31925	2001.218	35287.5	2001.218	28312.5
2001.219	34022.5	2001.219	40250	2001.219	47167.5	2001.219	36012.5
2001.22	41180	2001.22	50317.5	2001.22	57112.5	2001.22	44587.5
2001.221	47607.5	2001.221	56425	2001.221	58217.5	2001.221	51042.5
2001.222	43497.5	2001.222	55817.5	2001.222	61797.5	2001.222	53212.5
2001.223	-11840	2001.223	-16207.5	2001.223	-9092.5	2001.223	-9347.5
2001.224	-9195	2001.224	-10832.5	2001.224	-16667.5	2001.224	-13492.5
2001.225	-3837.5	2001.225	-3355	2001.225	-5377.5	2001.225	-6252.5
2001.226	417.5	2001.226	1295	2001.226	-190	2001.226	-1570
2001.227	5227.5	2001.227	5927.5	2001.227	4725	2001.227	3252.5
2001.228	8695	2001.228	9340	2001.228	8145	2001.228	6495
2001.229	10842.5	2001.229	11187.5	2001.229	9897.5	2001.229	8312.5
2001.23	12807.5	2001.23	13010	2001.23	11582.5	2001.23	9997.5
2001.231	15327.5	2001.231	15397.5	2001.231	13887.5	2001.231	12202.5
2001.232	17695	2001.232	17612.5	2001.232	15977.5	2001.232	14315
2001.233	19945	2001.233	19805	2001.233	18137.5	2001.233	16495
2001.234	21830	2001.234	21675	2001.234	20012.5	2001.234	18255
2001.235	23137.5	2001.235	22920	2001.235	21455	2001.235	19647.5
2001.236	24020	2001.236	23835	2001.236	22440	2001.236	20675
2001.237	24357.5	2001.237	24215	2001.237	23035	2001.237	21405
2001.238	24360	2001.238	24212.5	2001.238	23215	2001.238	21687.5
2001.239	24082.5	2001.239	23940	2001.239	23032.5	2001.239	21660
2001.24	23580	2001.24	23432.5	2001.24	22600	2001.24	21410
2001.241	23000	2001.241	22807.5	2001.241	22025	2001.241	21010
2001.242	22342.5	2001.242	22100	2001.242	21365	2001.242	20517.5
2001.243	21672.5	2001.243	21327.5	2001.243	20527.5	2001.243	19892.5
2001.244	20990	2001.244	20562.5	2001.244	19797.5	2001.244	19267.5
2001.245	20262.5	2001.245	19700	2001.245	18995	2001.245	18635
2001.246	19517.5	2001.246	18895	2001.246	18182.5	2001.246	17982.5
2001.247	18805	2001.247	18095	2001.247	17380	2001.247	17320
2001.248	18190	2001.248	17415	2001.248	16605	2001.248	16700
2001.249	17575	2001.249	16765	2001.249	15847.5	2001.249	16060
2001.25	16937.5	2001.25	16092.5	2001.25	15100	2001.25	15532.5
2001.251	16380	2001.251	15485	2001.251	14400	2001.251	14905
2001.252	15707.5	2001.252	14890	2001.252	13697.5	2001.252	14360
2001.253	15062.5	2001.253	14245	2001.253	13062.5	2001.253	13775
2001.254	14382.5	2001.254	13560	2001.254	12422.5	2001.254	13222.5
2001.255	13775	2001.255	12960	2001.255	11775	2001.255	12602.5
2001.256	12947.5	2001.256	12307.5	2001.256	11177.5	2001.256	12060
2001.257	12242.5	2001.257	11632.5	2001.257	10530	2001.257	11462.5
2001.258	11660	2001.258	10995	2001.258	9985	2001.258	10902.5
2001.259	10970	2001.259	10375	2001.259	9365	2001.259	10327.5
2001.26	10352.5	2001.26	9707.5	2001.26	8775	2001.26	9757.5
2001.261	9737.5	2001.261	9155	2001.261	8262.5	2001.261	9270
2001.262	9152.5	2001.262	8607.5	2001.262	7767.5	2001.262	8827.5
2001.263	8692.5	2001.263	8115	2001.263	7320	2001.263	8367.5
2001.264	8292.5	2001.264	7657.5	2001.264	6907.5	2001.264	7995
2001.265	7877.5	2001.265	7287.5	2001.265	6452.5	2001.265	7570
2001.266	7607.5	2001.266	6967.5	2001.266	6127.5	2001.266	7262.5
2001.267	7337.5	2001.267	6700	2001.267	5772.5	2001.267	6902.5
2001.268	7092.5	2001.268	6492.5	2001.268	5587.5	2001.268	6720
2001.269	6827.5	2001.269	6290	2001.269	5180	2001.269	6470
2001.27	6600	2001.27	6050	2001.27	4977.5	2001.27	6250
2001.271	6450	2001.271	5842.5	2001.271	4657.5	2001.271	6035
2001.272	6157.5	2001.272	5615	2001.272	4465	2001.272	5802.5
2001.273	5885	2001.273	5447.5	2001.273	4232.5	2001.273	5640
2001.274	5700	2001.274	5137.5	2001.274	4010	2001.274	5380
2001.275	5387.5	2001.275	4877.5	2001.275	3805	2001.275	5212.5
2001.276	5050	2001.276	4550	2001.276	3567.5	2001.276	4937.5
2001.277	4740	2001.277	4285	2001.277	3282.5	2001.277	4617.5
2001.278	4260	2001.278	3905	2001.278	3050	2001.278	4380
2001.279	4067.5	2001.279	3687.5	2001.279	2805	2001.279	4142.5
2001.28	3647.5	2001.28	3367.5	2001.28	2585	2001.28	3847.5
2001.281	3367.5	2001.281	3042.5	2001.281	2352.5	2001.281	3615
2001.282	3175	2001.282	2815	2001.282	2097.5	2001.282	3367.5
2001.283	2937.5	2001.283	2515	2001.283	1922.5	2001.283	3055
2001.284	2707.5	2001.284	2277.5	2001.284	1710	2001.284	2972.5
2001.285	2545	2001.285	2055	2001.285	1530	2001.285	2747.5
2001.286	2487.5	2001.286	1990	2001.286	1340	2001.286	2627.5
2001.287	2357.5	2001.287	1857.5	2001.287	1155	2001.287	2490
2001.288	2275	2001.288	1735	2001.288	970	2001.288	2330
2001.289	2095	2001.289	1527.5	2001.289	787.5	2001.289	2170
2001.29	2067.5	2001.29	1475	2001.29	620	2001.29	1977.5
2001.291	1927.5	2001.291	1342.5	2001.291	385	2001.291	1857.5
2001.292	1820	2001.292	1147.5	2001.292	225	2001.292	1640
2001.293	1647.5	2001.293	970	2001.293	60	2001.293	1452.5
2001.294	1400	2001.294	787.5	2001.294	-202.5	2001.294	1195
2001.295	1240	2001.295	537.5	2001.295	-322.5	2001.295	1060
2001.296	857.5	2001.296	280	2001.296	-515	2001.296	740
2001.297	582.5	2001.297	37.5	2001.297	-795	2001.297	545
2001.298	275	2001.298	-297.5	2001.298	-987.5	2001.298	295
2001.299	20	2001.299	-595	2001.299	-1215	2001.299	55
2001.3	-285	2001.3	-870	2001.3	-1470	2001.3	-262.5
2001.301	-597.5	2001.301	-1185	2001.301	-1670	2001.301	-520
2001.302	-787.5	2001.302	-1412.5	2001.302	-1825	2001.302	-780
2001.303	-1022.5	2001.303	-1590	2001.303	-1952.5	2001.303	-915
2001.304	-1215	2001.304	-1797.5	2001.304	-2110	2001.304	-1162.5
2001.305	-1327.5	2001.305	-1930	2001.305	-2285	2001.305	-1267.5
2001.306	-1392.5	2001.306	-2022.5	2001.306	-2332.5	2001.306	-1332.5
2001.307	-1472.5	2001.307	-2107.5	2001.307	-2440	2001.307	-1460
2001.308	-1482.5	2001.308	-2177.5	2001.308	-2502.5	2001.308	-1645
2001.309	-1540	2001.309	-2230	2001.309	-2725	2001.309	-1705
2001.31	-1695	2001.31	-2302.5	2001.31	-2835	2001.31	-1835
2001.311	-1735	2001.311	-2367.5	2001.311	-2925	2001.311	-1895
2001.312	-1835	2001.312	-2482.5	2001.312	-3045	2001.312	-2010
2001.313	-1885	2001.313	-2572.5	2001.313	-3207.5	2001.313	-2172.5
2001.314	-2015	2001.314	-2717.5	2001.314	-3295	2001.314	-2285
2001.315	-2277.5	2001.315	-2830	2001.315	-3377.5	2001.315	-2392.5
2001.316	-2450	2001.316	-3005	2001.316	-3525	2001.316	-2617.5
2001.317	-2615	2001.317	-3192.5	2001.317	-3665	2001.317	-2717.5
2001.318	-2967.5	2001.318	-3407.5	2001.318	-3817.5	2001.318	-2977.5
2001.319	-3112.5	2001.319	-3515	2001.319	-3922.5	2001.319	-3127.5
2001.32	-3287.5	2001.32	-3782.5	2001.32	-3962.5	2001.32	-3295
2001.321	-3417.5	2001.321	-3882.5	2001.321	-4095	2001.321	-3395
2001.322	-3595	2001.322	-4007.5	2001.322	-4192.5	2001.322	-3567.5
2001.323	-3690	2001.323	-4142.5	2001.323	-4250	2001.323	-3630
2001.324	-3752.5	2001.324	-4212.5	2001.324	-4330	2001.324	-3735
2001.325	-3802.5	2001.325	-4217.5	2001.325	-4360	2001.325	-3715
2001.326	-3755	2001.326	-4215	2001.326	-4420	2001.326	-3762.5
2001.327	-3702.5	2001.327	-4202.5	2001.327	-4415	2001.327	-3730
2001.328	-3555	2001.328	-4180	2001.328	-4390	2001.328	-3727.5
2001.329	-3595	2001.329	-4175	2001.329	-4460	2001.329	-3757.5
2001.33	-3637.5	2001.33	-4135	2001.33	-4540	2001.33	-3722.5
2001.331	-3565	2001.331	-3997.5	2001.331	-4545	2001.331	-3672.5
2001.332	-3510	2001.332	-4090	2001.332	-4555	2001.332	-3725
2001.333	-3522.5	2001.333	-4007.5	2001.333	-4492.5	2001.333	-3752.5
2001.334	-3610	2001.334	-4057.5	2001.334	-4560	2001.334	-3760
2001.335	-3665	2001.335	-4120	2001.335	-4622.5	2001.335	-3795
2001.336	-3722.5	2001.336	-4152.5	2001.336	-4680	2001.336	-3845
2001.337	-3842.5	2001.337	-4185	2001.337	-4675	2001.337	-3867.5
2001.338	-3922.5	2001.338	-4295	2001.338	-4737.5	2001.338	-4007.5
2001.339	-4147.5	2001.339	-4520	2001.339	-4817.5	2001.339	-4145
2001.34	-4227.5	2001.34	-4550	2001.34	-4870	2001.34	-4187.5
2001.341	-4340	2001.341	-4667.5	2001.341	-4930	2001.341	-4252.5
2001.342	-4410	2001.342	-4665	2001.342	-4925	2001.342	-4225
2001.343	-4452.5	2001.343	-4735	2001.343	-4922.5	2001.343	-4255
2001.344	-4470	2001.344	-4745	2001.344	-4922.5	2001.344	-4302.5
2001.345	-4452.5	2001.345	-4790	2001.345	-4977.5	2001.345	-4255
2001.346	-4312.5	2001.346	-4707.5	2001.346	-4937.5	2001.346	-4210
2001.347	-4300	2001.347	-4665	2001.347	-4920	2001.347	-4235
2001.348	-4032.5	2001.348	-4515	2001.348	-4817.5	2001.348	-4147.5
2001.349	-3962.5	2001.349	-4440	2001.349	-4840	2001.349	-4027.5
2001.35	-3885	2001.35	-4355	2001.35	-4865	2001.35	-3992.5
2001.351	-3725	2001.351	-4285	2001.351	-4757.5	2001.351	-3950
2001.352	-3667.5	2001.352	-4265	2001.352	-4790	2001.352	-3852.5
2001.353	-3592.5	2001.353	-4175	2001.353	-4770	2001.353	-3910
2001.354	-3617.5	2001.354	-4172.5	2001.354	-4722.5	2001.354	-3880
2001.355	-3632.5	2001.355	-4197.5	2001.355	-4777.5	2001.355	-3890
2001.356	-3720	2001.356	-4270	2001.356	-4830	2001.356	-3955
2001.357	-3805	2001.357	-4327.5	2001.357	-4845	2001.357	-3980
2001.358	-3885	2001.358	-4375	2001.358	-4867.5	2001.358	-4045
2001.359	-4015	2001.359	-4447.5	2001.359	-4860	2001.359	-4105
2001.36	-4092.5	2001.36	-4575	2001.36	-4935	2001.36	-4097.5
2001.361	-4182.5	2001.361	-4605	2001.361	-4882.5	2001.361	-4157.5
2001.362	-4082.5	2001.362	-4672.5	2001.362	-4882.5	2001.362	-4147.5
2001.363	-4130	2001.363	-4685	2001.363	-4850	2001.363	-4165
2001.364	-4197.5	2001.364	-4690	2001.364	-4840	2001.364	-4170
2001.365	-4112.5	2001.365	-4672.5	2001.365	-4895	2001.365	-4142.5
2001.366	-3900	2001.366	-4517.5	2001.366	-4702.5	2001.366	-4022.5
2001.367	-3785	2001.367	-4470	2001.367	-4695	2001.367	-3925
2001.368	-3695	2001.368	-4292.5	2001.368	-4585	2001.368	-3877.5
2001.369	-3617.5	2001.369	-4255	2001.369	-4627.5	2001.369	-3760
2001.37	-3505	2001.37	-4195	2001.37	-4562.5	2001.37	-3780
2001.371	-3390	2001.371	-4075	2001.371	-4537.5	2001.371	-3715
2001.372	-3395	2001.372	-4027.5	2001.372	-4470	2001.372	-3570
2001.373	-3235	2001.373	-3970	2001.373	-4437.5	2001.373	-3607.5
2001.374	-3257.5	2001.374	-3890	2001.374	-4432.5	2001.374	-3550
2001.375	-3255	2001.375	-3942.5	2001.375	-4410	2001.375	-3522.5
2001.376	-3355	2001.376	-4005	2001.376	-4415	2001.376	-3577.5
2001.377	-3450	2001.377	-4045	2001.377	-4480	2001.377	-3655
2001.378	-3547.5	2001.378	-4077.5	2001.378	-4472.5	2001.378	-3720
2001.379	-3592.5	2001.379	-4150	2001.379	-4410	2001.379	-3657.5
2001.38	-3705	2001.38	-4195	2001.38	-4417.5	2001.38	-3587.5
2001.381	-3802.5	2001.381	-4262.5	2001.381	-4442.5	2001.381	-3707.5
2001.382	-3775	2001.382	-4290	2001.382	-4412.5	2001.382	-3650
2001.383	-3815	2001.383	-4310	2001.383	-4335	2001.383	-3577.5
2001.384	-3745	2001.384	-4240	2001.384	-4337.5	2001.384	-3590
2001.385	-3690	2001.385	-4272.5	2001.385	-4315	2001.385	-3565
2001.386	-3612.5	2001.386	-4215	2001.386	-4265	2001.386	-3577.5
2001.387	-3540	2001.387	-4192.5	2001.387	-4230	2001.387	-3475
2001.388	-3495	2001.388	-4092.5	2001.388	-4177.5	2001.388	-3537.5
2001.389	-3352.5	2001.389	-4007.5	2001.389	-4147.5	2001.389	-3400
2001.39	-3255	2001.39	-3865	2001.39	-4132.5	2001.39	-3412.5
2001.391	-3210	2001.391	-3742.5	2001.391	-4087.5	2001.391	-3300
2001.392	-3170	2001.392	-3760	2001.392	-4035	2001.392	-3252.5
2001.393	-3070	2001.393	-3727.5	2001.393	-4015	2001.393	-3245
2001.394	-3025	2001.394	-3640	2001.394	-3970	2001.394	-3132.5
2001.395	-2955	2001.395	-3600	2001.395	-3917.5	2001.395	-3090
2001.396	-3130	2001.396	-3712.5	2001.396	-3910	2001.396	-3177.5
2001.397	-3230	2001.397	-3767.5	2001.397	-3947.5	2001.397	-3250
2001.398	-3342.5	2001.398	-3865	2001.398	-3972.5	2001.398	-3242.5
2001.399	-3462.5	2001.399	-3887.5	2001.399	-4002.5	2001.399	-3272.5
2001.4	-3542.5	2001.4	-4015	2001.4	-3987.5	2001.4	-3365
2001.401	-3682.5	2001.401	-4115	2001.401	-4060	2001.401	-3480
2001.402	-3597.5	2001.402	-4115	2001.402	-3975	2001.402	-3422.5
2001.403	-3607.5	2001.403	-4140	2001.403	-4002.5	2001.403	-3465
2001.404	-3577.5	2001.404	-4110	2001.404	-3942.5	2001.404	-3485
2001.405	-3520	2001.405	-4067.5	2001.405	-3892.5	2001.405	-3457.5
2001.406	-3425	2001.406	-3960	2001.406	-3827.5	2001.406	-3340
2001.407	-3335	2001.407	-3792.5	2001.407	-3717.5	2001.407	-3300
2001.408	-3247.5	2001.408	-3780	2001.408	-3665	2001.408	-3185
2001.409	-3122.5	2001.409	-3682.5	2001.409	-3627.5	2001.409	-3185
2001.41	-2980	2001.41	-3557.5	2001.41	-3605	2001.41	-3072.5
2001.411	-2860	2001.411	-3452.5	2001.411	-3517.5	2001.411	-2970
2001.412	-2905	2001.412	-3397.5	2001.412	-3450	2001.412	-2917.5
2001.413	-2812.5	2001.413	-3365	2001.413	-3417.5	2001.413	-2915
2001.414	-2817.5	2001.414	-3320	2001.414	-3367.5	2001.414	-2842.5
2001.415	-2827.5	2001.415	-3322.5	2001.415	-3350	2001.415	-2907.5
2001.416	-3010	2001.416	-3387.5	2001.416	-3445	2001.416	-2955
2001.417	-3082.5	2001.417	-3372.5	2001.417	-3445	2001.417	-2945
2001.418	-3205	2001.418	-3512.5	2001.418	-3452.5	2001.418	-3067.5
2001.419	-3330	2001.419	-3605	2001.419	-3437.5	2001.419	-3132.5
2001.42	-3432.5	2001.42	-3712.5	2001.42	-3490	2001.42	-3222.5
2001.421	-3455	2001.421	-3737.5	2001.421	-3437.5	2001.421	-3210
2001.422	-3482.5	2001.422	-3772.5	2001.422	-3380	2001.422	-3190
2001.423	-3470	2001.423	-3800	2001.423	-3370	2001.423	-3235
2001.424	-3450	2001.424	-3810	2001.424	-3360	2001.424	-3210
2001.425	-3387.5	2001.425	-3755	2001.425	-3280	2001.425	-3252.5
2001.426	-3360	2001.426	-3632.5	2001.426	-3265	2001.426	-3142.5
2001.427	-3230	2001.427	-3527.5	2001.427	-3210	2001.427	-3125
2001.428	-3107.5	2001.428	-3472.5	2001.428	-3137.5	2001.428	-3070
2001.429	-3095	2001.429	-3355	2001.429	-3167.5	2001.429	-3000
2001.43	-2952.5	2001.43	-3252.5	2001.43	-3072.5	2001.43	-2845
2001.431	-2825	2001.431	-3190	2001.431	-2987.5	2001.431	-2860
2001.432	-2860	2001.432	-3157.5	2001.432	-2995	2001.432	-2792.5
2001.433	-2737.5	2001.433	-3132.5	2001.433	-2940	2001.433	-2780
2001.434	-2737.5	2001.434	-3070	2001.434	-2942.5	2001.434	-2762.5
2001.435	-2790	2001.435	-3080	2001.435	-2972.5	2001.435	-2717.5
2001.436	-2887.5	2001.436	-3145	2001.436	-2970	2001.436	-2730
2001.437	-2967.5	2001.437	-3145	2001.437	-2910	2001.437	-2725
2001.438	-3132.5	2001.438	-3202.5	2001.438	-2975	2001.438	-2732.5
2001.439	-3200	2001.439	-3330	2001.439	-2945	2001.439	-2787.5
2001.44	-3312.5	2001.44	-3395	2001.44	-2960	2001.44	-2852.5
2001.441	-3350	2001.441	-3387.5	2001.441	-2982.5	2001.441	-2862.5
2001.442	-3395	2001.442	-3457.5	2001.442	-2955	2001.442	-2905
2001.443	-3417.5	2001.443	-3467.5	2001.443	-3000	2001.443	-2857.5
2001.444	-3432.5	2001.444	-3570	2001.444	-2965	2001.444	-2947.5
2001.445	-3375	2001.445	-3505	2001.445	-2910	2001.445	-2970
2001.446	-3270	2001.446	-3387.5	2001.446	-2882.5	2001.446	-2895
2001.447	-3192.5	2001.447	-3297.5	2001.447	-2872.5	2001.447	-2810
2001.448	-3065	2001.448	-3152.5	2001.448	-2770	2001.448	-2745
2001.449	-2915	2001.449	-3002.5	2001.449	-2705	2001.449	-2690
2001.45	-2837.5	2001.45	-2977.5	2001.45	-2707.5	2001.45	-2595
2001.451	-2710	2001.451	-2820	2001.451	-2575	2001.451	-2472.5
2001.452	-2732.5	2001.452	-2747.5	2001.452	-2510	2001.452	-2462.5
2001.453	-2710	2001.453	-2705	2001.453	-2580	2001.453	-2517.5
2001.454	-2632.5	2001.454	-2715	2001.454	-2512.5	2001.454	-2482.5
2001.455	-2667.5	2001.455	-2685	2001.455	-2505	2001.455	-2515
2001.456	-2737.5	2001.456	-2705	2001.456	-2515	2001.456	-2610
2001.457	-2865	2001.457	-2820	2001.457	-2520	2001.457	-2640
2001.458	-2917.5	2001.458	-2870	2001.458	-2560	2001.458	-2710
2001.459	-3062.5	2001.459	-2952.5	2001.459	-2537.5	2001.459	-2677.5
2001.46	-3180	2001.46	-3055	2001.46	-2570	2001.46	-2787.5
2001.461	-3220	2001.461	-3122.5	2001.461	-2580	2001.461	-2830
2001.462	-3352.5	2001.462	-3195	2001.462	-2627.5	2001.462	-2870
2001.463	-3332.5	2001.463	-3237.5	2001.463	-2580	2001.463	-2850
2001.464	-3347.5	2001.464	-3197.5	2001.464	-2495	2001.464	-2877.5
2001.465	-3335	2001.465	-3215	2001.465	-2432.5	2001.465	-2862.5
2001.466	-3227.5	2001.466	-3190	2001.466	-2390	2001.466	-2765
2001.467	-3145	2001.467	-3077.5	2001.467	-2327.5	2001.467	-2755
2001.468	-2947.5	2001.468	-2982.5	2001.468	-2230	2001.468	-2660
2001.469	-2912.5	2001.469	-2807.5	2001.469	-2160	2001.469	-2590
2001.47	-2767.5	2001.47	-2772.5	2001.47	-2060	2001.47	-2597.5
2001.471	-2660	2001.471	-2597.5	2001.471	-1995	2001.471	-2460
2001.472	-2630	2001.472	-2560	2001.472	-1995	2001.472	-2387.5
2001.473	-2570	2001.473	-2552.5	2001.473	-1965	2001.473	-2340
2001.474	-2542.5	2001.474	-2495	2001.474	-1925	2001.474	-2305
2001.475	-2600	2001.475	-2555	2001.475	-1920	2001.475	-2402.5
2001.476	-2632.5	2001.476	-2565	2001.476	-1920	2001.476	-2400
2001.477	-2762.5	2001.477	-2607.5	2001.477	-1937.5	2001.477	-2520
2001.478	-2850	2001.478	-2617.5	2001.478	-1952.5	2001.478	-2437.5
2001.479	-2840	2001.479	-2680	2001.479	-1907.5	2001.479	-2417.5
2001.48	-2947.5	2001.48	-2820	2001.48	-1920	2001.48	-2510
2001.481	-3052.5	2001.481	-2865	2001.481	-1967.5	2001.481	-2520
2001.482	-3045	2001.482	-2872.5	2001.482	-1910	2001.482	-2585
2001.483	-3052.5	2001.483	-2955	2001.483	-1965	2001.483	-2617.5
2001.484	-3122.5	2001.484	-2977.5	2001.484	-1905	2001.484	-2612.5
2001.485	-3030	2001.485	-2852.5	2001.485	-1877.5	2001.485	-2605
2001.486	-2992.5	2001.486	-2767.5	2001.486	-1825	2001.486	-2517.5
2001.487	-2902.5	2001.487	-2707.5	2001.487	-1802.5	2001.487	-2505
2001.488	-2735	2001.488	-2587.5	2001.488	-1745	2001.488	-2387.5
2001.489	-2542.5	2001.489	-2430	2001.489	-1705	2001.489	-2347.5
2001.49	-2497.5	2001.49	-2372.5	2001.49	-1622.5	2001.49	-2232.5
2001.491	-2372.5	2001.491	-2205	2001.491	-1582.5	2001.491	-2157.5
2001.492	-2287.5	2001.492	-2167.5	2001.492	-1567.5	2001.492	-2125
2001.493	-2210	2001.493	-2067.5	2001.493	-1497.5	2001.493	-2090
2001.494	-2187.5	2001.494	-2025	2001.494	-1477.5	2001.494	-2087.5
2001.495	-2327.5	2001.495	-2090	2001.495	-1522.5	2001.495	-2117.5
2001.496	-2422.5	2001.496	-2187.5	2001.496	-1557.5	2001.496	-2107.5
2001.497	-2485	2001.497	-2215	2001.497	-1550	2001.497	-2200
2001.498	-2547.5	2001.498	-2325	2001.498	-1590	2001.498	-2265
2001.499	-2575	2001.499	-2357.5	2001.499	-1615	2001.499	-2267.5
2001.5	-2725	2001.5	-2427.5	2001.5	-1597.5	2001.5	-2332.5
2001.501	-2785	2001.501	-2475	2001.501	-1637.5	2001.501	-2382.5
2001.502	-2822.5	2001.502	-2592.5	2001.502	-1627.5	2001.502	-2445
2001.503	-2825	2001.503	-2677.5	2001.503	-1625	2001.503	-2442.5
2001.504	-2862.5	2001.504	-2642.5	2001.504	-1640	2001.504	-2475
2001.505	-2767.5	2001.505	-2532.5	2001.505	-1627.5	2001.505	-2387.5
2001.506	-2622.5	2001.506	-2457.5	2001.506	-1580	2001.506	-2360
2001.507	-2690	2001.507	-2365	2001.507	-1617.5	2001.507	-2310
2001.508	-2477.5	2001.508	-2262.5	2001.508	-1505	2001.508	-2247.5
2001.509	-2387.5	2001.509	-2152.5	2001.509	-1442.5	2001.509	-2107.5
2001.51	-2255	2001.51	-2145	2001.51	-1437.5	2001.51	-2082.5
2001.511	-2142.5	2001.511	-2010	2001.511	-1357.5	2001.511	-2045
2001.512	-2107.5	2001.512	-1907.5	2001.512	-1410	2001.512	-1890
2001.513	-2050	2001.513	-1780	2001.513	-1280	2001.513	-1930
2001.514	-2070	2001.514	-1757.5	2001.514	-1330	2001.514	-1927.5
2001.515	-2015	2001.515	-1730	2001.515	-1305	2001.515	-1935
2001.516	-2182.5	2001.516	-1897.5	2001.516	-1382.5	2001.516	-1960
2001.517	-2255	2001.517	-1910	2001.517	-1372.5	2001.517	-1992.5
2001.518	-2362.5	2001.518	-2050	2001.518	-1475	2001.518	-2057.5
2001.519	-2405	2001.519	-2132.5	2001.519	-1490	2001.519	-2162.5
2001.52	-2507.5	2001.52	-2230	2001.52	-1490	2001.52	-2157.5
2001.521	-2572.5	2001.521	-2260	2001.521	-1532.5	2001.521	-2267.5
2001.522	-2627.5	2001.522	-2277.5	2001.522	-1575	2001.522	-2300
2001.523	-2572.5	2001.523	-2325	2001.523	-1535	2001.523	-2235
2001.524	-2640	2001.524	-2352.5	2001.524	-1500	2001.524	-2220
2001.525	-2497.5	2001.525	-2272.5	2001.525	-1462.5	2001.525	-2147.5
2001.526	-2352.5	2001.526	-2155	2001.526	-1400	2001.526	-2080
2001.527	-2327.5	2001.527	-2097.5	2001.527	-1395	2001.527	-2065
2001.528	-2240	2001.528	-2020	2001.528	-1362.5	2001.528	-2007.5
2001.529	-2205	2001.529	-1927.5	2001.529	-1335	2001.529	-1942.5
2001.53	-1962.5	2001.53	-1830	2001.53	-1342.5	2001.53	-1857.5
2001.531	-1865	2001.531	-1752.5	2001.531	-1230	2001.531	-1800
2001.532	-1850	2001.532	-1730	2001.532	-1230	2001.532	-1750
2001.533	-1730	2001.533	-1610	2001.533	-1192.5	2001.533	-1742.5
2001.534	-1695	2001.534	-1540	2001.534	-1170	2001.534	-1617.5
2001.535	-1735	2001.535	-1565	2001.535	-1227.5	2001.535	-1640
2001.536	-1792.5	2001.536	-1627.5	2001.536	-1197.5	2001.536	-1722.5
2001.537	-1900	2001.537	-1667.5	2001.537	-1235	2001.537	-1777.5
2001.538	-2005	2001.538	-1780	2001.538	-1255	2001.538	-1822.5
2001.539	-2122.5	2001.539	-1855	2001.539	-1252.5	2001.539	-1902.5
2001.54	-2272.5	2001.54	-1947.5	2001.54	-1310	2001.54	-1977.5
2001.541	-2345	2001.541	-2010	2001.541	-1382.5	2001.541	-2010
2001.542	-2345	2001.542	-2020	2001.542	-1360	2001.542	-2040
2001.543	-2320	2001.543	-2052.5	2001.543	-1372.5	2001.543	-2100
2001.544	-2307.5	2001.544	-1980	2001.544	-1402.5	2001.544	-2055
2001.545	-2200	2001.545	-1927.5	2001.545	-1330	2001.545	-1960
2001.546	-2170	2001.546	-1877.5	2001.546	-1302.5	2001.546	-1890
2001.547	-2067.5	2001.547	-1792.5	2001.547	-1232.5	2001.547	-1817.5
2001.548	-1850	2001.548	-1730	2001.548	-1207.5	2001.548	-1742.5
2001.549	-1790	2001.549	-1577.5	2001.549	-1217.5	2001.549	-1690
2001.55	-1725	2001.55	-1462.5	2001.55	-1170	2001.55	-1582.5
2001.551	-1670	2001.551	-1357.5	2001.551	-1107.5	2001.551	-1570
2001.552	-1570	2001.552	-1352.5	2001.552	-1097.5	2001.552	-1532.5
2001.553	-1507.5	2001.553	-1257.5	2001.553	-1055	2001.553	-1485
2001.554	-1497.5	2001.554	-1242.5	2001.554	-992.5	2001.554	-1430
2001.555	-1470	2001.555	-1225	2001.555	-1015	2001.555	-1432.5
2001.556	-1515	2001.556	-1347.5	2001.556	-1072.5	2001.556	-1515
2001.557	-1667.5	2001.557	-1420	2001.557	-1095	2001.557	-1602.5
2001.558	-1750	2001.558	-1375	2001.558	-1067.5	2001.558	-1527.5
2001.559	-1822.5	2001.559	-1450	2001.559	-1150	2001.559	-1660
2001.56	-1890	2001.56	-1515	2001.56	-1145	2001.56	-1632.5
2001.561	-1957.5	2001.561	-1537.5	2001.561	-1140	2001.561	-1682.5
2001.562	-1960	2001.562	-1542.5	2001.562	-1160	2001.562	-1697.5
2001.563	-1952.5	2001.563	-1560	2001.563	-1117.5	2001.563	-1660
2001.564	-1977.5	2001.564	-1610	2001.564	-1155	2001.564	-1632.5
2001.565	-1880	2001.565	-1492.5	2001.565	-1122.5	2001.565	-1592.5
2001.566	-1780	2001.566	-1487.5	2001.566	-1092.5	2001.566	-1557.5
2001.567	-1767.5	2001.567	-1405	2001.567	-1060	2001.567	-1512.5
2001.568	-1602.5	2001.568	-1310	2001.568	-955	2001.568	-1472.5
2001.569	-1440	2001.569	-1180	2001.569	-992.5	2001.569	-1425
2001.57	-1412.5	2001.57	-1150	2001.57	-982.5	2001.57	-1327.5
2001.571	-1310	2001.571	-1020	2001.571	-895	2001.571	-1255
2001.572	-1367.5	2001.572	-987.5	2001.572	-885	2001.572	-1252.5
2001.573	-1135	2001.573	-927.5	2001.573	-877.5	2001.573	-1155
2001.574	-1157.5	2001.574	-860	2001.574	-775	2001.574	-1137.5
2001.575	-1125	2001.575	-825	2001.575	-815	2001.575	-1137.5
2001.576	-1165	2001.576	-865	2001.576	-805	2001.576	-1150
2001.577	-1340	2001.577	-925	2001.577	-837.5	2001.577	-1230
2001.578	-1460	2001.578	-1100	2001.578	-960	2001.578	-1310
2001.579	-1585	2001.579	-1230	2001.579	-1015	2001.579	-1530
2001.58	-1802.5	2001.58	-1445	2001.58	-1245	2001.58	-1687.5
2001.581	-2212.5	2001.581	-1760	2001.581	-1510	2001.581	-1912.5
2001.582	-2182.5	2001.582	-1727.5	2001.582	-1492.5	2001.582	-1905
2001.583	-2475	2001.583	-2097.5	2001.583	-1792.5	2001.583	-2275
2001.584	-2700	2001.584	-2345	2001.584	-2057.5	2001.584	-2480
2001.585	-2777.5	2001.585	-2507.5	2001.585	-2202.5	2001.585	-2642.5
2001.586	-2597.5	2001.586	-2312.5	2001.586	-2047.5	2001.586	-2465
2001.587	-2137.5	2001.587	-1847.5	2001.587	-1667.5	2001.587	-2117.5
2001.588	-1502.5	2001.588	-1285	2001.588	-1067.5	2001.588	-1532.5
2001.589	-1137.5	2001.589	-905	2001.589	-720	2001.589	-1172.5
2001.59	-720	2001.59	-537.5	2001.59	-420	2001.59	-845
2001.591	-150	2001.591	92.5	2001.591	117.5	2001.591	-270
2001.592	135	2001.592	380	2001.592	372.5	2001.592	12.5
2001.593	-157.5	2001.593	25	2001.593	-17.5	2001.593	-305
2001.594	-237.5	2001.594	5	2001.594	-65	2001.594	-292.5
2001.595	-492.5	2001.595	-197.5	2001.595	-310	2001.595	-502.5
2001.596	-1272.5	2001.596	-977.5	2001.596	-1100	2001.596	-1315
2001.597	-2415	2001.597	-2167.5	2001.597	-2257.5	2001.597	-2435
2001.598	-1682.5	2001.598	-1382.5	2001.598	-1382.5	2001.598	-1530
2001.599	-1300	2001.599	-945	2001.599	-830	2001.599	-1067.5
2001.6	-1590	2001.6	-1152.5	2001.6	-1130	2001.6	-1330
2001.601	-1517.5	2001.601	-1180	2001.601	-1032.5	2001.601	-1265
2001.602	-1440	2001.602	-1072.5	2001.602	-902.5	2001.602	-1152.5
2001.603	-1690	2001.603	-1325	2001.603	-1217.5	2001.603	-1460
2001.604	-1940	2001.604	-1575	2001.604	-1472.5	2001.604	-1772.5
2001.605	-2072.5	2001.605	-1652.5	2001.605	-1550	2001.605	-1875
2001.606	-2100	2001.606	-1690	2001.606	-1657.5	2001.606	-1912.5
2001.607	-2667.5	2001.607	-2247.5	2001.607	-2327.5	2001.607	-2550
2001.608	-2967.5	2001.608	-2585	2001.608	-2712.5	2001.608	-2987.5
2001.609	-3175	2001.609	-2860	2001.609	-3080	2001.609	-3232.5
2001.61	-3305	2001.61	-3020	2001.61	-3340	2001.61	-3492.5
2001.611	-3195	2001.611	-3025	2001.611	-3300	2001.611	-3477.5
2001.612	-3230	2001.612	-2967.5	2001.612	-3290	2001.612	-3447.5
2001.613	-3175	2001.613	-2945	2001.613	-3210	2001.613	-3462.5
2001.614	-3055	2001.614	-2765	2001.614	-3147.5	2001.614	-3345
2001.615	-3065	2001.615	-2780	2001.615	-3132.5	2001.615	-3277.5
2001.616	-3182.5	2001.616	-2727.5	2001.616	-3080	2001.616	-3182.5
2001.617	-3142.5	2001.617	-2712.5	2001.617	-3007.5	2001.617	-3145
2001.618	-3167.5	2001.618	-2715	2001.618	-2915	2001.618	-3112.5
2001.619	-3127.5	2001.619	-2650	2001.619	-2915	2001.619	-3085
2001.62	-3117.5	2001.62	-2637.5	2001.62	-2830	2001.62	-3067.5
2001.621	-3177.5	2001.621	-2600	2001.621	-2720	2001.621	-2977.5
2001.622	-3062.5	2001.622	-2582.5	2001.622	-2612.5	2001.622	-2937.5
2001.623	-2945	2001.623	-2542.5	2001.623	-2547.5	2001.623	-2862.5
2001.624	-2905	2001.624	-2535	2001.624	-2555	2001.624	-2795
2001.625	-2807.5	2001.625	-2442.5	2001.625	-2445	2001.625	-2740
2001.626	-2697.5	2001.626	-2355	2001.626	-2355	2001.626	-2592.5
2001.627	-2592.5	2001.627	-2222.5	2001.627	-2265	2001.627	-2515
2001.628	-2390	2001.628	-2010	2001.628	-2205	2001.628	-2420
2001.629	-2170	2001.629	-1780	2001.629	-2142.5	2001.629	-2270
2001.63	-2085	2001.63	-1690	2001.63	-2000	2001.63	-2092.5
2001.631	-1912.5	2001.631	-1515	2001.631	-1917.5	2001.631	-1977.5
2001.632	-1825	2001.632	-1385	2001.632	-1852.5	2001.632	-1962.5
2001.633	-1735	2001.633	-1305	2001.633	-1785	2001.633	-1877.5
2001.634	-1670	2001.634	-1280	2001.634	-1770	2001.634	-1845
2001.635	-1740	2001.635	-1365	2001.635	-1770	2001.635	-1842.5
2001.636	-1725	2001.636	-1375	2001.636	-1787.5	2001.636	-1905
2001.637	-1795	2001.637	-1412.5	2001.637	-1780	2001.637	-1882.5
2001.638	-1822.5	2001.638	-1480	2001.638	-1752.5	2001.638	-1972.5
2001.639	-1932.5	2001.639	-1540	2001.639	-1795	2001.639	-1902.5
2001.64	-2042.5	2001.64	-1617.5	2001.64	-1777.5	2001.64	-2000
2001.641	-2087.5	2001.641	-1685	2001.641	-1792.5	2001.641	-2055
2001.642	-2165	2001.642	-1722.5	2001.642	-1785	2001.642	-2040
2001.643	-2537.5	2001.643	-2077.5	2001.643	-2100	2001.643	-2397.5
2001.644	-3162.5	2001.644	-2732.5	2001.644	-2835	2001.644	-2917.5
2001.645	-3257.5	2001.645	-3022.5	2001.645	-3360	2001.645	-3187.5
2001.646	-2092.5	2001.646	-2185	2001.646	-2980	2001.646	-2487.5
2001.647	-235	2001.647	-1337.5	2001.647	-3052.5	2001.647	-1865
2001.648	3832.5	2001.648	1717.5	2001.648	-562.5	2001.648	917.5
2001.649	11200	2001.649	8917.5	2001.649	6747.5	2001.649	7710
2001.65	20947.5	2001.65	19727.5	2001.65	19105	2001.65	17890
2001.651	27905	2001.651	29122.5	2001.651	31110	2001.651	25970
2001.652	31832.5	2001.652	35847.5	2001.652	40837.5	2001.652	32012.5
2001.653	38340	2001.653	46440	2001.653	53855	2001.653	40982.5
2001.654	45625	2001.654	54487.5	2001.654	58185	2001.654	48527.5
2001.655	49455	2001.655	58412.5	2001.655	59880	2001.655	53827.5
2001.656	3930	2001.656	26312.5	2001.656	62435	2001.656	34952.5
2001.657	-10220	2001.657	-14367.5	2001.657	-24200	2001.657	-14907.5
2001.658	-5790	2001.658	-5847.5	2001.658	-9560	2001.658	-9020
2001.659	-1212.5	2001.659	-477.5	2001.659	-2327.5	2001.659	-3457.5
2001.66	3112.5	2001.66	4082.5	2001.66	2470	2001.66	1120
2001.661	6972.5	2001.661	7937.5	2001.661	6495	2001.661	5022.5
2001.662	9702.5	2001.662	10502.5	2001.662	9107.5	2001.662	7520
2001.663	11292.5	2001.663	11810	2001.663	10360	2001.663	8752.5
2001.664	13622.5	2001.664	14032.5	2001.664	12522.5	2001.664	10855
2001.665	16065	2001.665	16330	2001.665	14830	2001.665	13075
2001.666	18570	2001.666	18582.5	2001.666	17105	2001.666	15262.5
2001.667	20810	2001.667	20632.5	2001.667	19202.5	2001.667	17325
2001.668	22517.5	2001.668	22252.5	2001.668	20832.5	2001.668	18977.5
2001.669	23790	2001.669	23505	2001.669	22065	2001.669	20310
2001.67	24567.5	2001.67	24327.5	2001.67	23002.5	2001.67	21362.5
2001.671	25017.5	2001.671	24722.5	2001.671	23400	2001.671	21922.5
2001.672	25070	2001.672	24775	2001.672	23497.5	2001.672	22225
2001.673	24815	2001.673	24450	2001.673	23255	2001.673	22222.5
2001.674	24412.5	2001.674	23982.5	2001.674	22782.5	2001.674	21887.5
2001.675	23777.5	2001.675	23340	2001.675	22140	2001.675	21407.5
2001.676	23055	2001.676	22557.5	2001.676	21445	2001.676	20902.5
2001.677	22255	2001.677	21755	2001.677	20677.5	2001.677	20280
2001.678	21460	2001.678	20885	2001.678	19815	2001.678	19592.5
2001.679	20455	2001.679	19885	2001.679	18940	2001.679	18775
2001.68	19600	2001.68	19005	2001.68	18085	2001.68	18047.5
2001.681	18720	2001.681	18015	2001.681	17190	2001.681	17285
2001.682	17915	2001.682	17225	2001.682	16382.5	2001.682	16545
2001.683	17100	2001.683	16430	2001.683	15537.5	2001.683	15835
2001.684	16402.5	2001.684	15715	2001.684	14817.5	2001.684	15210
2001.685	15805	2001.685	15035	2001.685	14080	2001.685	14620
2001.686	15287.5	2001.686	14417.5	2001.686	13482.5	2001.686	14102.5
2001.687	14650	2001.687	13907.5	2001.687	12900	2001.687	13562.5
2001.688	14127.5	2001.688	13375	2001.688	12255	2001.688	13157.5
2001.689	13652.5	2001.689	12817.5	2001.689	11737.5	2001.689	12657.5
2001.69	13140	2001.69	12292.5	2001.69	11200	2001.69	12142.5
2001.691	12632.5	2001.691	11905	2001.691	10715	2001.691	11755
2001.692	12170	2001.692	11422.5	2001.692	10220	2001.692	11332.5
2001.693	11745	2001.693	11002.5	2001.693	9757.5	2001.693	10875
2001.694	11242.5	2001.694	10450	2001.694	9220	2001.694	10350
2001.695	10602.5	2001.695	9997.5	2001.695	8765	2001.695	9920
2001.696	10020	2001.696	9457.5	2001.696	8212.5	2001.696	9440
2001.697	9477.5	2001.697	8942.5	2001.697	7740	2001.697	8957.5
2001.698	8952.5	2001.698	8367.5	2001.698	7207.5	2001.698	8500
2001.699	8502.5	2001.699	7925	2001.699	6807.5	2001.699	8135
2001.7	7967.5	2001.7	7512.5	2001.7	6455	2001.7	7727.5
2001.701	7492.5	2001.701	6957.5	2001.701	6045	2001.701	7322.5
2001.702	7082.5	2001.702	6620	2001.702	5652.5	2001.702	7002.5
2001.703	6862.5	2001.703	6357.5	2001.703	5375	2001.703	6790
2001.704	6510	2001.704	6007.5	2001.704	5142.5	2001.704	6452.5
2001.705	6162.5	2001.705	5777.5	2001.705	4875	2001.705	6177.5
2001.706	6062.5	2001.706	5537.5	2001.706	4582.5	2001.706	5952.5
2001.707	5810	2001.707	5332.5	2001.707	4417.5	2001.707	5790
2001.708	5747.5	2001.708	5217.5	2001.708	4280	2001.708	5632.5
2001.709	5597.5	2001.709	5107.5	2001.709	4057.5	2001.709	5455
2001.71	5467.5	2001.71	4942.5	2001.71	3882.5	2001.71	5290
2001.711	5370	2001.711	4760	2001.711	3705	2001.711	5122.5
2001.712	5140	2001.712	4585	2001.712	3487.5	2001.712	4947.5
2001.713	4897.5	2001.713	4345	2001.713	3252.5	2001.713	4772.5
2001.714	4620	2001.714	4145	2001.714	3047.5	2001.714	4542.5
2001.715	4452.5	2001.715	3942.5	2001.715	2920	2001.715	4347.5
2001.716	4072.5	2001.716	3622.5	2001.716	2607.5	2001.716	4077.5
2001.717	3827.5	2001.717	3357.5	2001.717	2485	2001.717	3827.5
2001.718	3445	2001.718	3042.5	2001.718	2157.5	2001.718	3582.5
2001.719	3057.5	2001.719	2740	2001.719	1915	2001.719	3260
2001.72	2792.5	2001.72	2477.5	2001.72	1680	2001.72	3055
2001.721	2430	2001.721	2205	2001.721	1420	2001.721	2790
2001.722	2205	2001.722	1860	2001.722	1295	2001.722	2580
2001.723	1962.5	2001.723	1695	2001.723	1020	2001.723	2312.5
2001.724	1772.5	2001.724	1450	2001.724	845	2001.724	2125
2001.725	1647.5	2001.725	1207.5	2001.725	622.5	2001.725	1967.5
2001.726	1565	2001.726	1117.5	2001.726	480	2001.726	1847.5
2001.727	1437.5	2001.727	995	2001.727	390	2001.727	1645
2001.728	1397.5	2001.728	975	2001.728	247.5	2001.728	1565
2001.729	1307.5	2001.729	835	2001.729	12.5	2001.729	1417.5
2001.73	1170	2001.73	785	2001.73	-87.5	2001.73	1262.5
2001.731	1117.5	2001.731	662.5	2001.731	-145	2001.731	1155
2001.732	1030	2001.732	507.5	2001.732	-305	2001.732	1010
2001.733	860	2001.733	392.5	2001.733	-477.5	2001.733	845
2001.734	712.5	2001.734	165	2001.734	-630	2001.734	642.5
2001.735	440	2001.735	-82.5	2001.735	-887.5	2001.735	382.5
2001.736	117.5	2001.736	-400	2001.736	-1107.5	2001.736	105
2001.737	-197.5	2001.737	-657.5	2001.737	-1322.5	2001.737	-130
2001.738	-437.5	2001.738	-925	2001.738	-1502.5	2001.738	-327.5
2001.739	-720	2001.739	-1137.5	2001.739	-1692.5	2001.739	-585
2001.74	-1070	2001.74	-1510	2001.74	-1932.5	2001.74	-852.5
2001.741	-1352.5	2001.741	-1747.5	2001.741	-2170	2001.741	-1127.5
2001.742	-1490	2001.742	-1982.5	2001.742	-2335	2001.742	-1337.5
2001.743	-1635	2001.743	-2160	2001.743	-2487.5	2001.743	-1470
2001.744	-1797.5	2001.744	-2322.5	2001.744	-2627.5	2001.744	-1660
2001.745	-1967.5	2001.745	-2437.5	2001.745	-2800	2001.745	-1780
2001.746	-2037.5	2001.746	-2600	2001.746	-2907.5	2001.746	-1920
2001.747	-2077.5	2001.747	-2545	2001.747	-2965	2001.747	-2012.5
2001.748	-2060	2001.748	-2677.5	2001.748	-3055	2001.748	-2080
2001.749	-2085	2001.749	-2697.5	2001.749	-3097.5	2001.749	-2165
2001.75	-2122.5	2001.75	-2710	2001.75	-3202.5	2001.75	-2127.5
2001.751	-2130	2001.751	-2617.5	2001.751	-3307.5	2001.751	-2195
2001.752	-2175	2001.752	-2712.5	2001.752	-3340	2001.752	-2280
2001.753	-2220	2001.753	-2820	2001.753	-3395	2001.753	-2382.5
2001.754	-2370	2001.754	-2900	2001.754	-3545	2001.754	-2450
2001.755	-2490	2001.755	-2990	2001.755	-3635	2001.755	-2652.5
2001.756	-2610	2001.756	-3150	2001.756	-3680	2001.756	-2710
2001.757	-2797.5	2001.757	-3270	2001.757	-3830	2001.757	-2822.5
2001.758	-3025	2001.758	-3450	2001.758	-3907.5	2001.758	-3047.5
2001.759	-3225	2001.759	-3605	2001.759	-4005	2001.759	-3115
2001.76	-3397.5	2001.76	-3677.5	2001.76	-4155	2001.76	-3232.5
2001.761	-3435	2001.761	-3842.5	2001.761	-4205	2001.761	-3375
2001.762	-3582.5	2001.762	-3985	2001.762	-4325	2001.762	-3395
2001.763	-3617.5	2001.763	-4047.5	2001.763	-4305	2001.763	-3560
2001.764	-3692.5	2001.764	-4177.5	2001.764	-4355	2001.764	-3615
2001.765	-3580	2001.765	-4240	2001.765	-4372.5	2001.765	-3617.5
2001.766	-3575	2001.766	-4090	2001.766	-4395	2001.766	-3560
2001.767	-3547.5	2001.767	-4090	2001.767	-4455	2001.767	-3565
2001.768	-3460	2001.768	-4030	2001.768	-4442.5	2001.768	-3517.5
2001.769	-3422.5	2001.769	-3975	2001.769	-4420	2001.769	-3472.5
2001.77	-3375	2001.77	-3865	2001.77	-4475	2001.77	-3517.5
2001.771	-3290	2001.771	-3865	2001.771	-4410	2001.771	-3482.5
2001.772	-3230	2001.772	-3770	2001.772	-4380	2001.772	-3475
2001.773	-3237.5	2001.773	-3790	2001.773	-4372.5	2001.773	-3407.5
2001.774	-3215	2001.774	-3797.5	2001.774	-4452.5	2001.774	-3430
2001.775	-3347.5	2001.775	-3812.5	2001.775	-4520	2001.775	-3407.5
2001.776	-3452.5	2001.776	-3902.5	2001.776	-4490	2001.776	-3535
2001.777	-3525	2001.777	-3992.5	2001.777	-4552.5	2001.777	-3560
2001.778	-3677.5	2001.778	-4090	2001.778	-4592.5	2001.778	-3672.5
2001.779	-3850	2001.779	-4217.5	2001.779	-4635	2001.779	-3745
2001.78	-3885	2001.78	-4280	2001.78	-4632.5	2001.78	-3797.5
2001.781	-4000	2001.781	-4355	2001.781	-4685	2001.781	-3835
2001.782	-3995	2001.782	-4410	2001.782	-4665	2001.782	-3860
2001.783	-4005	2001.783	-4357.5	2001.783	-4637.5	2001.783	-3817.5
2001.784	-4012.5	2001.784	-4322.5	2001.784	-4632.5	2001.784	-3787.5
2001.785	-3937.5	2001.785	-4282.5	2001.785	-4625	2001.785	-3712.5
2001.786	-3830	2001.786	-4287.5	2001.786	-4570	2001.786	-3735
2001.787	-3765	2001.787	-4220	2001.787	-4592.5	2001.787	-3770
2001.788	-3652.5	2001.788	-4150	2001.788	-4557.5	2001.788	-3682.5
2001.789	-3625	2001.789	-4112.5	2001.789	-4540	2001.789	-3632.5
2001.79	-3482.5	2001.79	-4020	2001.79	-4510	2001.79	-3567.5
2001.791	-3452.5	2001.791	-3995	2001.791	-4472.5	2001.791	-3505
2001.792	-3350	2001.792	-3930	2001.792	-4430	2001.792	-3517.5
2001.793	-3342.5	2001.793	-3857.5	2001.793	-4457.5	2001.793	-3512.5
2001.794	-3370	2001.794	-3775	2001.794	-4447.5	2001.794	-3442.5
2001.795	-3310	2001.795	-3840	2001.795	-4420	2001.795	-3390
2001.796	-3470	2001.796	-3887.5	2001.796	-4387.5	2001.796	-3460
2001.797	-3520	2001.797	-3927.5	2001.797	-4420	2001.797	-3485
2001.798	-3617.5	2001.798	-4032.5	2001.798	-4450	2001.798	-3540
2001.799	-3712.5	2001.799	-4170	2001.799	-4397.5	2001.799	-3592.5
2001.8	-3840	2001.8	-4255	2001.8	-4520	2001.8	-3697.5
2001.801	-3967.5	2001.801	-4360	2001.801	-4547.5	2001.801	-3710
2001.802	-3992.5	2001.802	-4397.5	2001.802	-4520	2001.802	-3750
2001.803	-3992.5	2001.803	-4385	2001.803	-4452.5	2001.803	-3760
2001.804	-4055	2001.804	-4460	2001.804	-4475	2001.804	-3802.5
2001.805	-3867.5	2001.805	-4310	2001.805	-4422.5	2001.805	-3707.5
2001.806	-3707.5	2001.806	-4162.5	2001.806	-4252.5	2001.806	-3575
2001.807	-3645	2001.807	-4040	2001.807	-4245	2001.807	-3520
2001.808	-3530	2001.808	-3912.5	2001.808	-4140	2001.808	-3490
2001.809	-3422.5	2001.809	-3840	2001.809	-4152.5	2001.809	-3430
2001.81	-3297.5	2001.81	-3730	2001.81	-4077.5	2001.81	-3292.5
2001.811	-3127.5	2001.811	-3635	2001.811	-4050	2001.811	-3197.5
2001.812	-3137.5	2001.812	-3550	2001.812	-3982.5	2001.812	-3150
2001.813	-2985	2001.813	-3560	2001.813	-3982.5	2001.813	-3152.5
2001.814	-2990	2001.814	-3592.5	2001.814	-3962.5	2001.814	-3140
2001.815	-3060	2001.815	-3522.5	2001.815	-3915	2001.815	-3042.5
2001.816	-3122.5	2001.816	-3605	2001.816	-3925	2001.816	-3122.5
2001.817	-3235	2001.817	-3700	2001.817	-3970	2001.817	-3155
2001.818	-3337.5	2001.818	-3802.5	2001.818	-4027.5	2001.818	-3255
2001.819	-3542.5	2001.819	-3905	2001.819	-4097.5	2001.819	-3372.5
2001.82	-3562.5	2001.82	-4050	2001.82	-4092.5	2001.82	-3375
2001.821	-3657.5	2001.821	-4127.5	2001.821	-4150	2001.821	-3447.5
2001.822	-3780	2001.822	-4152.5	2001.822	-4077.5	2001.822	-3470
2001.823	-3745	2001.823	-4135	2001.823	-4097.5	2001.823	-3427.5
2001.824	-3765	2001.824	-4140	2001.824	-4075	2001.824	-3530
2001.825	-3675	2001.825	-4132.5	2001.825	-4055	2001.825	-3432.5
2001.826	-3540	2001.826	-3985	2001.826	-3952.5	2001.826	-3305
2001.827	-3412.5	2001.827	-3915	2001.827	-3950	2001.827	-3260
2001.828	-3305	2001.828	-3812.5	2001.828	-3887.5	2001.828	-3265
2001.829	-3250	2001.829	-3772.5	2001.829	-3822.5	2001.829	-3170
2001.83	-3132.5	2001.83	-3620	2001.83	-3787.5	2001.83	-3147.5
2001.831	-3025	2001.831	-3587.5	2001.831	-3712.5	2001.831	-3010
2001.832	-3025	2001.832	-3440	2001.832	-3665	2001.832	-3065
2001.833	-2962.5	2001.833	-3440	2001.833	-3667.5	2001.833	-3005
2001.834	-2915	2001.834	-3397.5	2001.834	-3625	2001.834	-3007.5
2001.835	-2950	2001.835	-3500	2001.835	-3612.5	2001.835	-3007.5
2001.836	-3032.5	2001.836	-3532.5	2001.836	-3632.5	2001.836	-2945
2001.837	-3075	2001.837	-3495	2001.837	-3622.5	2001.837	-2932.5
2001.838	-3170	2001.838	-3570	2001.838	-3600	2001.838	-2952.5
2001.839	-3267.5	2001.839	-3612.5	2001.839	-3557.5	2001.839	-3015
2001.84	-3317.5	2001.84	-3682.5	2001.84	-3620	2001.84	-3072.5
2001.841	-3425	2001.841	-3767.5	2001.841	-3612.5	2001.841	-3075
2001.842	-3350	2001.842	-3777.5	2001.842	-3617.5	2001.842	-3120
2001.843	-3482.5	2001.843	-3795	2001.843	-3557.5	2001.843	-3132.5
2001.844	-3425	2001.844	-3800	2001.844	-3572.5	2001.844	-3097.5
2001.845	-3417.5	2001.845	-3797.5	2001.845	-3532.5	2001.845	-3102.5
2001.846	-3250	2001.846	-3750	2001.846	-3507.5	2001.846	-3037.5
2001.847	-3212.5	2001.847	-3652.5	2001.847	-3417.5	2001.847	-2930
2001.848	-3062.5	2001.848	-3535	2001.848	-3427.5	2001.848	-2880
2001.849	-2970	2001.849	-3365	2001.849	-3257.5	2001.849	-2812.5
2001.85	-2742.5	2001.85	-3222.5	2001.85	-3120	2001.85	-2690
2001.851	-2670	2001.851	-3052.5	2001.851	-3062.5	2001.851	-2505
2001.852	-2607.5	2001.852	-2970	2001.852	-3035	2001.852	-2510
2001.853	-2525	2001.853	-2890	2001.853	-2912.5	2001.853	-2402.5
2001.854	-2467.5	2001.854	-2842.5	2001.854	-2910	2001.854	-2360
2001.855	-2445	2001.855	-2850	2001.855	-2885	2001.855	-2390
2001.856	-2632.5	2001.856	-2922.5	2001.856	-2892.5	2001.856	-2470
2001.857	-2735	2001.857	-2995	2001.857	-2895	2001.857	-2495
2001.858	-2872.5	2001.858	-3145	2001.858	-2925	2001.858	-2600
2001.859	-2995	2001.859	-3260	2001.859	-2980	2001.859	-2650
2001.86	-3072.5	2001.86	-3300	2001.86	-3020	2001.86	-2740
2001.861	-3227.5	2001.861	-3450	2001.861	-3052.5	2001.861	-2792.5
2001.862	-3280	2001.862	-3540	2001.862	-3075	2001.862	-2892.5
2001.863	-3247.5	2001.863	-3565	2001.863	-3097.5	2001.863	-2882.5
2001.864	-3212.5	2001.864	-3577.5	2001.864	-3065	2001.864	-2872.5
2001.865	-3215	2001.865	-3510	2001.865	-2987.5	2001.865	-2910
2001.866	-3067.5	2001.866	-3357.5	2001.866	-2942.5	2001.866	-2765
2001.867	-3047.5	2001.867	-3357.5	2001.867	-2947.5	2001.867	-2727.5
2001.868	-2872.5	2001.868	-3215	2001.868	-2822.5	2001.868	-2612.5
2001.869	-2827.5	2001.869	-3155	2001.869	-2882.5	2001.869	-2587.5
2001.87	-2590	2001.87	-3050	2001.87	-2810	2001.87	-2562.5
2001.871	-2585	2001.871	-3030	2001.871	-2735	2001.871	-2525
2001.872	-2462.5	2001.872	-2822.5	2001.872	-2627.5	2001.872	-2337.5
2001.873	-2487.5	2001.873	-2767.5	2001.873	-2622.5	2001.873	-2342.5
2001.874	-2435	2001.874	-2685	2001.874	-2610	2001.874	-2310
2001.875	-2500	2001.875	-2780	2001.875	-2610	2001.875	-2317.5
2001.876	-2625	2001.876	-2812.5	2001.876	-2632.5	2001.876	-2397.5
2001.877	-2717.5	2001.877	-2840	2001.877	-2705	2001.877	-2390
2001.878	-2837.5	2001.878	-2910	2001.878	-2720	2001.878	-2512.5
2001.879	-2957.5	2001.879	-3082.5	2001.879	-2730	2001.879	-2590
2001.88	-3065	2001.88	-3112.5	2001.88	-2767.5	2001.88	-2610
2001.881	-3152.5	2001.881	-3237.5	2001.881	-2745	2001.881	-2737.5
2001.882	-3155	2001.882	-3292.5	2001.882	-2762.5	2001.882	-2782.5
2001.883	-3135	2001.883	-3235	2001.883	-2700	2001.883	-2727.5
2001.884	-3187.5	2001.884	-3210	2001.884	-2685	2001.884	-2767.5
2001.885	-3135	2001.885	-3170	2001.885	-2640	2001.885	-2670
2001.886	-3050	2001.886	-3055	2001.886	-2567.5	2001.886	-2692.5
2001.887	-2917.5	2001.887	-3015	2001.887	-2570	2001.887	-2620
2001.888	-2867.5	2001.888	-2922.5	2001.888	-2485	2001.888	-2585
2001.889	-2777.5	2001.889	-2867.5	2001.889	-2442.5	2001.889	-2570
2001.89	-2617.5	2001.89	-2780	2001.89	-2442.5	2001.89	-2470
2001.891	-2587.5	2001.891	-2650	2001.891	-2410	2001.891	-2472.5
2001.892	-2500	2001.892	-2607.5	2001.892	-2432.5	2001.892	-2422.5
2001.893	-2530	2001.893	-2507.5	2001.893	-2322.5	2001.893	-2470
2001.894	-2370	2001.894	-2447.5	2001.894	-2322.5	2001.894	-2385
2001.895	-2545	2001.895	-2510	2001.895	-2275	2001.895	-2432.5
2001.896	-2720	2001.896	-2562.5	2001.896	-2310	2001.896	-2477.5
2001.897	-2695	2001.897	-2645	2001.897	-2320	2001.897	-2487.5
2001.898	-2825	2001.898	-2745	2001.898	-2270	2001.898	-2590
2001.899	-2882.5	2001.899	-2857.5	2001.899	-2235	2001.899	-2575
2001.9	-3027.5	2001.9	-2890	2001.9	-2265	2001.9	-2600
2001.901	-3010	2001.901	-2952.5	2001.901	-2262.5	2001.901	-2697.5
2001.902	-3040	2001.902	-2965	2001.902	-2215	2001.902	-2662.5
2001.903	-3140	2001.903	-3047.5	2001.903	-2140	2001.903	-2657.5
2001.904	-3057.5	2001.904	-3025	2001.904	-2092.5	2001.904	-2590
2001.905	-2980	2001.905	-2972.5	2001.905	-2062.5	2001.905	-2575
2001.906	-2892.5	2001.906	-2810	2001.906	-1935	2001.906	-2470
2001.907	-2782.5	2001.907	-2757.5	2001.907	-1922.5	2001.907	-2440
2001.908	-2727.5	2001.908	-2692.5	2001.908	-1865	2001.908	-2355
2001.909	-2612.5	2001.909	-2692.5	2001.909	-1827.5	2001.909	-2347.5
2001.91	-2645	2001.91	-2642.5	2001.91	-1872.5	2001.91	-2352.5
2001.911	-2520	2001.911	-2547.5	2001.911	-1800	2001.911	-2222.5
2001.912	-2535	2001.912	-2412.5	2001.912	-1785	2001.912	-2170
2001.913	-2527.5	2001.913	-2387.5	2001.913	-1760	2001.913	-2165
2001.914	-2550	2001.914	-2362.5	2001.914	-1755	2001.914	-2215
2001.915	-2517.5	2001.915	-2390	2001.915	-1707.5	2001.915	-2187.5
2001.916	-2550	2001.916	-2440	2001.916	-1727.5	2001.916	-2255
2001.917	-2657.5	2001.917	-2492.5	2001.917	-1730	2001.917	-2257.5
2001.918	-2735	2001.918	-2592.5	2001.918	-1765	2001.918	-2310
2001.919	-2862.5	2001.919	-2547.5	2001.919	-1775	2001.919	-2320
2001.92	-2995	2001.92	-2635	2001.92	-1767.5	2001.92	-2392.5
2001.921	-3040	2001.921	-2717.5	2001.921	-1785	2001.921	-2435
2001.922	-3052.5	2001.922	-2752.5	2001.922	-1792.5	2001.922	-2435
2001.923	-3080	2001.923	-2767.5	2001.923	-1840	2001.923	-2425
2001.924	-3095	2001.924	-2775	2001.924	-1817.5	2001.924	-2540
2001.925	-3007.5	2001.925	-2720	2001.925	-1742.5	2001.925	-2457.5
2001.926	-2845	2001.926	-2655	2001.926	-1712.5	2001.926	-2455
2001.927	-2755	2001.927	-2497.5	2001.927	-1657.5	2001.927	-2377.5
2001.928	-2547.5	2001.928	-2345	2001.928	-1597.5	2001.928	-2262.5
2001.929	-2482.5	2001.929	-2187.5	2001.929	-1530	2001.929	-2162.5
2001.93	-2330	2001.93	-2087.5	2001.93	-1475	2001.93	-2082.5
2001.931	-2295	2001.931	-1962.5	2001.931	-1392.5	2001.931	-2020
2001.932	-2197.5	2001.932	-1942.5	2001.932	-1322.5	2001.932	-1967.5
2001.933	-2225	2001.933	-1895	2001.933	-1365	2001.933	-1895
2001.934	-2212.5	2001.934	-1897.5	2001.934	-1365	2001.934	-1912.5
2001.935	-2262.5	2001.935	-1862.5	2001.935	-1390	2001.935	-1912.5
2001.936	-2262.5	2001.936	-1882.5	2001.936	-1462.5	2001.936	-2005
2001.937	-2325	2001.937	-2042.5	2001.937	-1435	2001.937	-2042.5
2001.938	-2485	2001.938	-2127.5	2001.938	-1452.5	2001.938	-2067.5
2001.939	-2520	2001.939	-2132.5	2001.939	-1400	2001.939	-2112.5
2001.94	-2615	2001.94	-2127.5	2001.94	-1422.5	2001.94	-2077.5
2001.941	-2627.5	2001.941	-2152.5	2001.941	-1370	2001.941	-2092.5
2001.942	-2595	2001.942	-2135	2001.942	-1387.5	2001.942	-2115
2001.943	-2545	2001.943	-2135	2001.943	-1345	2001.943	-1977.5
2001.944	-2525	2001.944	-2122.5	2001.944	-1317.5	2001.944	-1960
2001.945	-2530	2001.945	-2075	2001.945	-1257.5	2001.945	-1975
2001.946	-2347.5	2001.946	-2002.5	2001.946	-1245	2001.946	-1970
2001.947	-2265	2001.947	-1962.5	2001.947	-1260	2001.947	-1932.5
2001.948	-2157.5	2001.948	-1807.5	2001.948	-1132.5	2001.948	-1817.5
2001.949	-2130	2001.949	-1780	2001.949	-1137.5	2001.949	-1727.5
2001.95	-2045	2001.95	-1637.5	2001.95	-1110	2001.95	-1762.5
2001.951	-1925	2001.951	-1562.5	2001.951	-1090	2001.951	-1700
2001.952	-1925	2001.952	-1612.5	2001.952	-1107.5	2001.952	-1752.5
2001.953	-1910	2001.953	-1550	2001.953	-1110	2001.953	-1720
2001.954	-1840	2001.954	-1477.5	2001.954	-1120	2001.954	-1685
2001.955	-1895	2001.955	-1535	2001.955	-1127.5	2001.955	-1702.5
2001.956	-1995	2001.956	-1610	2001.956	-1155	2001.956	-1677.5
2001.957	-2022.5	2001.957	-1620	2001.957	-1220	2001.957	-1762.5
2001.958	-2175	2001.958	-1705	2001.958	-1257.5	2001.958	-1782.5
2001.959	-2297.5	2001.959	-1792.5	2001.959	-1277.5	2001.959	-1827.5
2001.96	-2397.5	2001.96	-1877.5	2001.96	-1282.5	2001.96	-1830
2001.961	-2435	2001.961	-2000	2001.961	-1347.5	2001.961	-1970
2001.962	-2445	2001.962	-2062.5	2001.962	-1325	2001.962	-2050
2001.963	-2492.5	2001.963	-1992.5	2001.963	-1305	2001.963	-2032.5
2001.964	-2385	2001.964	-1990	2001.964	-1260	2001.964	-1982.5
2001.965	-2335	2001.965	-2040	2001.965	-1240	2001.965	-2010
2001.966	-2315	2001.966	-1925	2001.966	-1270	2001.966	-1865
2001.967	-2202.5	2001.967	-1915	2001.967	-1272.5	2001.967	-1885
2001.968	-2067.5	2001.968	-1747.5	2001.968	-1162.5	2001.968	-1880
2001.969	-1902.5	2001.969	-1675	2001.969	-1097.5	2001.969	-1740
2001.97	-1802.5	2001.97	-1587.5	2001.97	-1080	2001.97	-1660
2001.971	-1757.5	2001.971	-1482.5	2001.971	-1117.5	2001.971	-1665
2001.972	-1747.5	2001.972	-1472.5	2001.972	-1097.5	2001.972	-1590
2001.973	-1727.5	2001.973	-1417.5	2001.973	-1105	2001.973	-1562.5
2001.974	-1745	2001.974	-1425	2001.974	-1165	2001.974	-1605
2001.975	-1690	2001.975	-1465	2001.975	-1150	2001.975	-1522.5
2001.976	-1782.5	2001.976	-1537.5	2001.976	-1120	2001.976	-1670
2001.977	-1895	2001.977	-1565	2001.977	-1175	2001.977	-1690
2001.978	-2020	2001.978	-1707.5	2001.978	-1225	2001.978	-1740
2001.979	-2057.5	2001.979	-1785	2001.979	-1227.5	2001.979	-1790
2001.98	-2127.5	2001.98	-1792.5	2001.98	-1275	2001.98	-1792.5
2001.981	-2277.5	2001.981	-1902.5	2001.981	-1242.5	2001.981	-1860
2001.982	-2242.5	2001.982	-1925	2001.982	-1235	2001.982	-1895
2001.983	-2202.5	2001.983	-1897.5	2001.983	-1332.5	2001.983	-1890
2001.984	-2197.5	2001.984	-1890	2001.984	-1257.5	2001.984	-1965
2001.985	-2095	2001.985	-1870	2001.985	-1225	2001.985	-1845
2001.986	-1942.5	2001.986	-1747.5	2001.986	-1167.5	2001.986	-1782.5
2001.987	-1887.5	2001.987	-1620	2001.987	-1155	2001.987	-1710
2001.988	-1727.5	2001.988	-1530	2001.988	-1070	2001.988	-1580
2001.989	-1560	2001.989	-1427.5	2001.989	-1075	2001.989	-1600
2001.99	-1545	2001.99	-1437.5	2001.99	-1027.5	2001.99	-1545
2001.991	-1407.5	2001.991	-1260	2001.991	-985	2001.991	-1395
2001.992	-1372.5	2001.992	-1222.5	2001.992	-1007.5	2001.992	-1500
2001.993	-1357.5	2001.993	-1205	2001.993	-1002.5	2001.993	-1415
2001.994	-1292.5	2001.994	-1162.5	2001.994	-1030	2001.994	-1402.5
2001.995	-1355	2001.995	-1152.5	2001.995	-1015	2001.995	-1357.5
2001.996	-1542.5	2001.996	-1230	2001.996	-1015	2001.996	-1407.5
2001.997	-1525	2001.997	-1272.5	2001.997	-1012.5	2001.997	-1395
2001.998	-1625	2001.998	-1347.5	2001.998	-1002.5	2001.998	-1435
2001.999	-1672.5	2001.999	-1367.5	2001.999	-975	2001.999	-1482.5
2002	-1762.5	2002	-1405	2002	-1032.5	2002	-1555
2002.001	-1787.5	2002.001	-1482.5	2002.001	-1052.5	2002.001	-1550
2002.002	-1850	2002.002	-1545	2002.002	-982.5	2002.002	-1577.5
2002.003	-1982.5	2002.003	-1547.5	2002.003	-1067.5	2002.003	-1587.5
2002.004	-2005	2002.004	-1562.5	2002.004	-1072.5	2002.004	-1637.5
2002.005	-1970	2002.005	-1477.5	2002.005	-1020	2002.005	-1637.5
2002.006	-1810	2002.006	-1400	2002.006	-1012.5	2002.006	-1595
2002.007	-1695	2002.007	-1355	2002.007	-950	2002.007	-1540
2002.008	-1535	2002.008	-1222.5	2002.008	-985	2002.008	-1467.5
2002.009	-1525	2002.009	-1112.5	2002.009	-930	2002.009	-1455
2002.01	-1387.5	2002.01	-980	2002.01	-920	2002.01	-1345
2002.011	-1322.5	2002.011	-992.5	2002.011	-907.5	2002.011	-1272.5
2002.012	-1257.5	2002.012	-957.5	2002.012	-930	2002.012	-1282.5
2002.013	-1157.5	2002.013	-942.5	2002.013	-902.5	2002.013	-1277.5
2002.014	-1157.5	2002.014	-907.5	2002.014	-887.5	2002.014	-1265
2002.015	-1232.5	2002.015	-962.5	2002.015	-967.5	2002.015	-1295
2002.016	-1427.5	2002.016	-977.5	2002.016	-967.5	2002.016	-1277.5
2002.017	-1465	2002.017	-1097.5	2002.017	-1140	2002.017	-1397.5
2002.018	-1755	2002.018	-1357.5	2002.018	-1295	2002.018	-1605
2002.019	-1990	2002.019	-1547.5	2002.019	-1470	2002.019	-1822.5
2002.02	-2072.5	2002.02	-1650	2002.02	-1525	2002.02	-1907.5
2002.021	-2567.5	2002.021	-2050	2002.021	-1942.5	2002.021	-2252.5
2002.022	-2895	2002.022	-2402.5	2002.022	-2202.5	2002.022	-2582.5
2002.023	-2997.5	2002.023	-2555	2002.023	-2300	2002.023	-2722.5
2002.024	-2782.5	2002.024	-2322.5	2002.024	-2055	2002.024	-2482.5
2002.025	-2282.5	2002.025	-1865	2002.025	-1587.5	2002.025	-1987.5
2002.026	-1730	2002.026	-1272.5	2002.026	-1050	2002.026	-1495
2002.027	-1347.5	2002.027	-890	2002.027	-680	2002.027	-1120
2002.028	-882.5	2002.028	-475	2002.028	-347.5	2002.028	-767.5
2002.029	-392.5	2002.029	90	2002.029	152.5	2002.029	-245
2002.03	-235	2002.03	270	2002.03	237.5	2002.03	-67.5
2002.031	-512.5	2002.031	-35	2002.031	-185	2002.031	-445
2002.032	-290	2002.032	72.5	2002.032	-90	2002.032	-377.5
2002.033	-655	2002.033	-345	2002.033	-540	2002.033	-680
2002.034	-1470	2002.034	-1220	2002.034	-1527.5	2002.034	-1655
2002.035	-2257.5	2002.035	-1995	2002.035	-2377.5	2002.035	-2472.5
2002.036	-1377.5	2002.036	-965	2002.036	-1117.5	2002.036	-1352.5
2002.037	-1205	2002.037	-795	2002.037	-912.5	2002.037	-1137.5
2002.038	-1520	2002.038	-1122.5	2002.038	-1165	2002.038	-1390
2002.039	-1560	2002.039	-1112.5	2002.039	-1157.5	2002.039	-1360
2002.04	-1515	2002.04	-1027.5	2002.04	-1060	2002.04	-1335
2002.041	-2000	2002.041	-1492.5	2002.041	-1517.5	2002.041	-1787.5
2002.042	-2245	2002.042	-1720	2002.042	-1752.5	2002.042	-2022.5
2002.043	-2287.5	2002.043	-1795	2002.043	-1767.5	2002.043	-2097.5
2002.044	-2602.5	2002.044	-2070	2002.044	-2005	2002.044	-2330
2002.045	-3192.5	2002.045	-2775	2002.045	-2742.5	2002.045	-3010
2002.046	-3470	2002.046	-3095	2002.046	-3055	2002.046	-3335
2002.047	-3665	2002.047	-3272.5	2002.047	-3395	2002.047	-3620
2002.048	-3702.5	2002.048	-3400	2002.048	-3602.5	2002.048	-3727.5
2002.049	-3652.5	2002.049	-3270	2002.049	-3560	2002.049	-3757.5
2002.05	-3507.5	2002.05	-3142.5	2002.05	-3430	2002.05	-3597.5
2002.051	-3387.5	2002.051	-2977.5	2002.051	-3397.5	2002.051	-3445
2002.052	-3235	2002.052	-2865	2002.052	-3337.5	2002.052	-3462.5
2002.053	-3072.5	2002.053	-2722.5	2002.053	-3242.5	2002.053	-3325
2002.054	-3090	2002.054	-2655	2002.054	-3155	2002.054	-3190
2002.055	-3147.5	2002.055	-2587.5	2002.055	-3100	2002.055	-3165
2002.056	-3160	2002.056	-2615	2002.056	-3047.5	2002.056	-3205
2002.057	-3110	2002.057	-2615	2002.057	-2970	2002.057	-3130
2002.058	-3165	2002.058	-2622.5	2002.058	-2922.5	2002.058	-3120
2002.059	-3217.5	2002.059	-2622.5	2002.059	-2930	2002.059	-3125
2002.06	-3170	2002.06	-2610	2002.06	-2800	2002.06	-3040
2002.061	-3185	2002.061	-2627.5	2002.061	-2707.5	2002.061	-2990
2002.062	-3147.5	2002.062	-2557.5	2002.062	-2672.5	2002.062	-2957.5
2002.063	-3065	2002.063	-2505	2002.063	-2597.5	2002.063	-2905
2002.064	-3012.5	2002.064	-2532.5	2002.064	-2522.5	2002.064	-2822.5
2002.065	-2965	2002.065	-2392.5	2002.065	-2502.5	2002.065	-2790
2002.066	-2762.5	2002.066	-2307.5	2002.066	-2425	2002.066	-2682.5
2002.067	-2572.5	2002.067	-2162.5	2002.067	-2280	2002.067	-2537.5
2002.068	-2432.5	2002.068	-1972.5	2002.068	-2252.5	2002.068	-2440
2002.069	-2315	2002.069	-1867.5	2002.069	-2110	2002.069	-2327.5
2002.07	-2165	2002.07	-1765	2002.07	-2020	2002.07	-2305
2002.071	-2030	2002.071	-1657.5	2002.071	-2045	2002.071	-2167.5
2002.072	-2060	2002.072	-1625	2002.072	-2035	2002.072	-2162.5
2002.073	-1995	2002.073	-1510	2002.073	-1997.5	2002.073	-2172.5
2002.074	-1925	2002.074	-1465	2002.074	-1950	2002.074	-2142.5
2002.075	-1925	2002.075	-1457.5	2002.075	-1910	2002.075	-2110
2002.076	-2010	2002.076	-1485	2002.076	-1942.5	2002.076	-2100
2002.077	-2047.5	2002.077	-1582.5	2002.077	-2002.5	2002.077	-2147.5
2002.078	-2185	2002.078	-1645	2002.078	-2037.5	2002.078	-2170
2002.079	-2302.5	2002.079	-1765	2002.079	-2105	2002.079	-2295
2002.08	-2470	2002.08	-1897.5	2002.08	-2090	2002.08	-2357.5
2002.081	-2985	2002.081	-2447.5	2002.081	-2625	2002.081	-2865
2002.082	-3730	2002.082	-3237.5	2002.082	-3420	2002.082	-3567.5
2002.083	-3582.5	2002.083	-3235	2002.083	-3690	2002.083	-3515
2002.084	-1997.5	2002.084	-2272.5	2002.084	-3307.5	2002.084	-2680
2002.085	355	2002.085	-925	2002.085	-2817.5	2002.085	-1587.5
2002.086	5385	2002.086	3250	2002.086	880	2002.086	2285
2002.087	14300	2002.087	12032.5	2002.087	10305	2002.087	10730
2002.088	23477.5	2002.088	22757.5	2002.088	22925	2002.088	20662.5
2002.089	29585	2002.089	31440	2002.089	34220	2002.089	27915
2002.09	33720	2002.09	38947.5	2002.09	45077.5	2002.09	34950
2002.091	40772.5	2002.091	49535	2002.091	56545	2002.091	43725
2002.092	47315	2002.092	55985	2002.092	57925	2002.092	50317.5
2002.093	46117.5	2002.093	57397.5	2002.093	60660	2002.093	53170
2002.094	-10007.5	2002.094	-11760	2002.094	23237.5	2002.094	-1265
2002.095	-9785	2002.095	-11937.5	2002.095	-19475	2002.095	-14322.5
2002.096	-4202.5	2002.096	-3715	2002.096	-6545	2002.096	-6857.5
2002.097	-105	2002.097	810	2002.097	-1017.5	2002.097	-2180
2002.098	4475	2002.098	5420	2002.098	3877.5	2002.098	2502.5
2002.099	7970	2002.099	8787.5	2002.099	7455	2002.099	5947.5
2002.1	10075	2002.1	10787.5	2002.1	9352.5	2002.1	7827.5
2002.101	11755	2002.101	12232.5	2002.101	10852.5	2002.101	9230
2002.102	14165	2002.102	14545	2002.102	13082.5	2002.102	11372.5
2002.103	16592.5	2002.103	16705	2002.103	15260	2002.103	13512.5
2002.104	18910	2002.104	18942.5	2002.104	17472.5	2002.104	15680
2002.105	20902.5	2002.105	20850	2002.105	19465	2002.105	17615
2002.106	22442.5	2002.106	22417.5	2002.106	21040	2002.106	19147.5
2002.107	23522.5	2002.107	23437.5	2002.107	22137.5	2002.107	20372.5
2002.108	24210	2002.108	24120	2002.108	22800	2002.108	21187.5
2002.109	24510	2002.109	24315	2002.109	23077.5	2002.109	21630
2002.11	24492.5	2002.11	24260	2002.11	23080	2002.11	21822.5
2002.111	24277.5	2002.111	24000	2002.111	22760	2002.111	21790
2002.112	23837.5	2002.112	23502.5	2002.112	22232.5	2002.112	21482.5
2002.113	23357.5	2002.113	22910	2002.113	21632.5	2002.113	21062.5
2002.114	22647.5	2002.114	22160	2002.114	20922.5	2002.114	20472.5
2002.115	21865	2002.115	21417.5	2002.115	20152.5	2002.115	19900
2002.116	20970	2002.116	20500	2002.116	19245	2002.116	19190
2002.117	20075	2002.117	19560	2002.117	18297.5	2002.117	18345
2002.118	19152.5	2002.118	18565	2002.118	17452.5	2002.118	17602.5
2002.119	18250	2002.119	17650	2002.119	16592.5	2002.119	16832.5
2002.12	17410	2002.12	16762.5	2002.12	15780	2002.12	16132.5
2002.121	16525	2002.121	15910	2002.121	14982.5	2002.121	15390
2002.122	15717.5	2002.122	15010	2002.122	14170	2002.122	14640
2002.123	15012.5	2002.123	14375	2002.123	13415	2002.123	14017.5
2002.124	14280	2002.124	13620	2002.124	12762.5	2002.124	13387.5
2002.125	13697.5	2002.125	12987.5	2002.125	12125	2002.125	12815
2002.126	13172.5	2002.126	12435	2002.126	11505	2002.126	12380
2002.127	12672.5	2002.127	11907.5	2002.127	10942.5	2002.127	11815
2002.128	12187.5	2002.128	11390	2002.128	10425	2002.128	11342.5
2002.129	11710	2002.129	10885	2002.129	9927.5	2002.129	10815
2002.13	11252.5	2002.13	10482.5	2002.13	9407.5	2002.13	10397.5
2002.131	10795	2002.131	10010	2002.131	8885	2002.131	10000
2002.132	10307.5	2002.132	9547.5	2002.132	8402.5	2002.132	9572.5
2002.133	9872.5	2002.133	9055	2002.133	7925	2002.133	9107.5
2002.134	9460	2002.134	8717.5	2002.134	7495	2002.134	8800
2002.135	8982.5	2002.135	8217.5	2002.135	7077.5	2002.135	8347.5
2002.136	8455	2002.136	7832.5	2002.136	6660	2002.136	8000
2002.137	8010	2002.137	7385	2002.137	6250	2002.137	7590
2002.138	7535	2002.138	6922.5	2002.138	5922.5	2002.138	7190
2002.139	7142.5	2002.139	6520	2002.139	5630	2002.139	6865
2002.14	6717.5	2002.14	6107.5	2002.14	5262.5	2002.14	6545
2002.141	6207.5	2002.141	5722.5	2002.141	4907.5	2002.141	6177.5
2002.142	5860	2002.142	5347.5	2002.142	4595	2002.142	5860
2002.143	5562.5	2002.143	5102.5	2002.143	4320	2002.143	5607.5
2002.144	5352.5	2002.144	4807.5	2002.144	4120	2002.144	5357.5
2002.145	5077.5	2002.145	4592.5	2002.145	3872.5	2002.145	5095
2002.146	4915	2002.146	4352.5	2002.146	3695	2002.146	4935
2002.147	4792.5	2002.147	4135	2002.147	3510	2002.147	4695
2002.148	4705	2002.148	4022.5	2002.148	3292.5	2002.148	4657.5
2002.149	4510	2002.149	3870	2002.149	3132.5	2002.149	4457.5
2002.15	4377.5	2002.15	3737.5	2002.15	3000	2002.15	4325
2002.151	4207.5	2002.151	3587.5	2002.151	2835	2002.151	4160
2002.152	4052.5	2002.152	3412.5	2002.152	2575	2002.152	4007.5
2002.153	3785	2002.153	3195	2002.153	2410	2002.153	3707.5
2002.154	3542.5	2002.154	3022.5	2002.154	2170	2002.154	3607.5
2002.155	3372.5	2002.155	2765	2002.155	1960	2002.155	3327.5
2002.156	3075	2002.156	2507.5	2002.156	1770	2002.156	3090
2002.157	2770	2002.157	2242.5	2002.157	1422.5	2002.157	2812.5
2002.158	2445	2002.158	1937.5	2002.158	1197.5	2002.158	2547.5
2002.159	2105	2002.159	1660	2002.159	980	2002.159	2337.5
2002.16	1842.5	2002.16	1310	2002.16	770	2002.16	2057.5
2002.161	1487.5	2002.161	1012.5	2002.161	550	2002.161	1787.5
2002.162	1280	2002.162	857.5	2002.162	370	2002.162	1590
2002.163	965	2002.163	537.5	2002.163	200	2002.163	1332.5
2002.164	755	2002.164	315	2002.164	25	2002.164	1080
2002.165	635	2002.165	125	2002.165	-197.5	2002.165	960
2002.166	535	2002.166	-12.5	2002.166	-355	2002.166	822.5
2002.167	367.5	2002.167	-130	2002.167	-482.5	2002.167	662.5
2002.168	442.5	2002.168	-207.5	2002.168	-540	2002.168	607.5
2002.169	250	2002.169	-337.5	2002.169	-675	2002.169	400
2002.17	65	2002.17	-497.5	2002.17	-912.5	2002.17	225
2002.171	30	2002.171	-595	2002.171	-1030	2002.171	17.5
2002.172	-237.5	2002.172	-717.5	2002.172	-1247.5	2002.172	-90
2002.173	-400	2002.173	-877.5	2002.173	-1402.5	2002.173	-242.5
2002.174	-565	2002.174	-1107.5	2002.174	-1585	2002.174	-487.5
2002.175	-710	2002.175	-1275	2002.175	-1755	2002.175	-655
2002.176	-987.5	2002.176	-1522.5	2002.176	-1937.5	2002.176	-802.5
2002.177	-1285	2002.177	-1752.5	2002.177	-2167.5	2002.177	-1015
2002.178	-1482.5	2002.178	-1955	2002.178	-2335	2002.178	-1340
2002.179	-1780	2002.179	-2190	2002.179	-2520	2002.179	-1502.5
2002.18	-2032.5	2002.18	-2547.5	2002.18	-2727.5	2002.18	-1777.5
2002.181	-2332.5	2002.181	-2735	2002.181	-2957.5	2002.181	-1990
2002.182	-2540	2002.182	-2945	2002.182	-3105	2002.182	-2160
2002.183	-2625	2002.183	-3125	2002.183	-3225	2002.183	-2282.5
2002.184	-2877.5	2002.184	-3275	2002.184	-3387.5	2002.184	-2565
2002.185	-2900	2002.185	-3370	2002.185	-3442.5	2002.185	-2662.5
2002.186	-2927.5	2002.186	-3385	2002.186	-3587.5	2002.186	-2715
2002.187	-3075	2002.187	-3517.5	2002.187	-3690	2002.187	-2837.5
2002.188	-3060	2002.188	-3512.5	2002.188	-3740	2002.188	-2862.5
2002.189	-3055	2002.189	-3525	2002.189	-3850	2002.189	-3015
2002.19	-3075	2002.19	-3535	2002.19	-3905	2002.19	-3085
2002.191	-2987.5	2002.191	-3562.5	2002.191	-3950	2002.191	-3072.5
2002.192	-3132.5	2002.192	-3645	2002.192	-4085	2002.192	-3122.5
2002.193	-3145	2002.193	-3612.5	2002.193	-4125	2002.193	-3235
2002.194	-3255	2002.194	-3677.5	2002.194	-4225	2002.194	-3232.5
2002.195	-3460	2002.195	-3782.5	2002.195	-4282.5	2002.195	-3430
2002.196	-3557.5	2002.196	-3907.5	2002.196	-4327.5	2002.196	-3472.5
2002.197	-3660	2002.197	-3995	2002.197	-4420	2002.197	-3475
2002.198	-3867.5	2002.198	-4137.5	2002.198	-4497.5	2002.198	-3552.5
2002.199	-4027.5	2002.199	-4315	2002.199	-4582.5	2002.199	-3812.5
2002.2	-4252.5	2002.2	-4410	2002.2	-4687.5	2002.2	-3805
2002.201	-4335	2002.201	-4570	2002.201	-4752.5	2002.201	-3877.5
2002.202	-4445	2002.202	-4617.5	2002.202	-4847.5	2002.202	-4025
2002.203	-4495	2002.203	-4712.5	2002.203	-4842.5	2002.203	-4085
2002.204	-4455	2002.204	-4677.5	2002.204	-4860	2002.204	-4070
2002.205	-4340	2002.205	-4640	2002.205	-4842.5	2002.205	-4007.5
2002.206	-4275	2002.206	-4670	2002.206	-4862.5	2002.206	-4057.5
2002.207	-4237.5	2002.207	-4612.5	2002.207	-4857.5	2002.207	-4010
2002.208	-4135	2002.208	-4525	2002.208	-4875	2002.208	-3965
2002.209	-4092.5	2002.209	-4507.5	2002.209	-4867.5	2002.209	-4002.5
2002.21	-4070	2002.21	-4462.5	2002.21	-4885	2002.21	-4010
2002.211	-3902.5	2002.211	-4412.5	2002.211	-4870	2002.211	-3895
2002.212	-3880	2002.212	-4430	2002.212	-4897.5	2002.212	-3960
2002.213	-3895	2002.213	-4345	2002.213	-4907.5	2002.213	-3885
2002.214	-3907.5	2002.214	-4410	2002.214	-4965	2002.214	-3952.5
2002.215	-4032.5	2002.215	-4417.5	2002.215	-5012.5	2002.215	-4037.5
2002.216	-4072.5	2002.216	-4532.5	2002.216	-5022.5	2002.216	-4077.5
2002.217	-4170	2002.217	-4635	2002.217	-5117.5	2002.217	-4132.5
2002.218	-4352.5	2002.218	-4707.5	2002.218	-5125	2002.218	-4227.5
2002.219	-4467.5	2002.219	-4767.5	2002.219	-5137.5	2002.219	-4230
2002.22	-4587.5	2002.22	-4852.5	2002.22	-5192.5	2002.22	-4240
2002.221	-4665	2002.221	-4997.5	2002.221	-5247.5	2002.221	-4325
2002.222	-4697.5	2002.222	-5032.5	2002.222	-5170	2002.222	-4420
2002.223	-4722.5	2002.223	-5060	2002.223	-5260	2002.223	-4407.5
2002.224	-4690	2002.224	-4997.5	2002.224	-5240	2002.224	-4410
2002.225	-4592.5	2002.225	-4967.5	2002.225	-5242.5	2002.225	-4377.5
2002.226	-4547.5	2002.226	-4937.5	2002.226	-5162.5	2002.226	-4330
2002.227	-4417.5	2002.227	-4905	2002.227	-5110	2002.227	-4250
2002.228	-4270	2002.228	-4762.5	2002.228	-5037.5	2002.228	-4235
2002.229	-4190	2002.229	-4615	2002.229	-5005	2002.229	-4185
2002.23	-4052.5	2002.23	-4572.5	2002.23	-5000	2002.23	-4092.5
2002.231	-3995	2002.231	-4482.5	2002.231	-4987.5	2002.231	-3992.5
2002.232	-3947.5	2002.232	-4345	2002.232	-4885	2002.232	-3880
2002.233	-3857.5	2002.233	-4360	2002.233	-4872.5	2002.233	-3890
2002.234	-3887.5	2002.234	-4232.5	2002.234	-4840	2002.234	-3777.5
2002.235	-3950	2002.235	-4297.5	2002.235	-4862.5	2002.235	-3915
2002.236	-4035	2002.236	-4412.5	2002.236	-4845	2002.236	-3920
2002.237	-4097.5	2002.237	-4410	2002.237	-4900	2002.237	-3937.5
2002.238	-4142.5	2002.238	-4540	2002.238	-4835	2002.238	-3972.5
2002.239	-4335	2002.239	-4630	2002.239	-4895	2002.239	-3972.5
2002.24	-4347.5	2002.24	-4705	2002.24	-4897.5	2002.24	-4005
2002.241	-4412.5	2002.241	-4755	2002.241	-4912.5	2002.241	-4075
2002.242	-4435	2002.242	-4770	2002.242	-4897.5	2002.242	-4067.5
2002.243	-4400	2002.243	-4810	2002.243	-4912.5	2002.243	-4037.5
2002.244	-4375	2002.244	-4832.5	2002.244	-4882.5	2002.244	-4057.5
2002.245	-4292.5	2002.245	-4745	2002.245	-4792.5	2002.245	-3920
2002.246	-4167.5	2002.246	-4635	2002.246	-4707.5	2002.246	-3875
2002.247	-4032.5	2002.247	-4485	2002.247	-4617.5	2002.247	-3790
2002.248	-3860	2002.248	-4382.5	2002.248	-4517.5	2002.248	-3727.5
2002.249	-3790	2002.249	-4267.5	2002.249	-4490	2002.249	-3655
2002.25	-3650	2002.25	-4220	2002.25	-4435	2002.25	-3647.5
2002.251	-3585	2002.251	-4125	2002.251	-4415	2002.251	-3580
2002.252	-3542.5	2002.252	-4117.5	2002.252	-4390	2002.252	-3505
2002.253	-3527.5	2002.253	-4062.5	2002.253	-4370	2002.253	-3517.5
2002.254	-3540	2002.254	-4022.5	2002.254	-4325	2002.254	-3520
2002.255	-3615	2002.255	-4077.5	2002.255	-4387.5	2002.255	-3480
2002.256	-3677.5	2002.256	-4105	2002.256	-4372.5	2002.256	-3515
2002.257	-3700	2002.257	-4185	2002.257	-4415	2002.257	-3587.5
2002.258	-3880	2002.258	-4332.5	2002.258	-4412.5	2002.258	-3655
2002.259	-3897.5	2002.259	-4295	2002.259	-4395	2002.259	-3677.5
2002.26	-3952.5	2002.26	-4357.5	2002.26	-4385	2002.26	-3670
2002.261	-4047.5	2002.261	-4417.5	2002.261	-4387.5	2002.261	-3677.5
2002.262	-4090	2002.262	-4450	2002.262	-4352.5	2002.262	-3745
2002.263	-4135	2002.263	-4605	2002.263	-4442.5	2002.263	-3780
2002.264	-4140	2002.264	-4620	2002.264	-4390	2002.264	-3787.5
2002.265	-4047.5	2002.265	-4482.5	2002.265	-4327.5	2002.265	-3747.5
2002.266	-3935	2002.266	-4410	2002.266	-4297.5	2002.266	-3695
2002.267	-3847.5	2002.267	-4307.5	2002.267	-4225	2002.267	-3650
2002.268	-3617.5	2002.268	-4212.5	2002.268	-4130	2002.268	-3550
2002.269	-3577.5	2002.269	-4155	2002.269	-4132.5	2002.269	-3490
2002.27	-3497.5	2002.27	-4052.5	2002.27	-4072.5	2002.27	-3447.5
2002.271	-3407.5	2002.271	-3955	2002.271	-4060	2002.271	-3307.5
2002.272	-3322.5	2002.272	-3852.5	2002.272	-3972.5	2002.272	-3295
2002.273	-3260	2002.273	-3792.5	2002.273	-3972.5	2002.273	-3217.5
2002.274	-3222.5	2002.274	-3762.5	2002.274	-3915	2002.274	-3237.5
2002.275	-3280	2002.275	-3752.5	2002.275	-3860	2002.275	-3195
2002.276	-3295	2002.276	-3840	2002.276	-3857.5	2002.276	-3252.5
2002.277	-3355	2002.277	-3902.5	2002.277	-3880	2002.277	-3290
2002.278	-3455	2002.278	-3980	2002.278	-3847.5	2002.278	-3272.5
2002.279	-3600	2002.279	-4015	2002.279	-3885	2002.279	-3385
2002.28	-3685	2002.28	-4087.5	2002.28	-3865	2002.28	-3387.5
2002.281	-3747.5	2002.281	-4095	2002.281	-3832.5	2002.281	-3445
2002.282	-3772.5	2002.282	-4125	2002.282	-3802.5	2002.282	-3375
2002.283	-3677.5	2002.283	-4165	2002.283	-3782.5	2002.283	-3397.5
2002.284	-3677.5	2002.284	-4172.5	2002.284	-3762.5	2002.284	-3467.5
2002.285	-3685	2002.285	-4097.5	2002.285	-3692.5	2002.285	-3357.5
2002.286	-3555	2002.286	-3987.5	2002.286	-3682.5	2002.286	-3350
2002.287	-3472.5	2002.287	-3900	2002.287	-3642.5	2002.287	-3247.5
2002.288	-3270	2002.288	-3750	2002.288	-3585	2002.288	-3132.5
2002.289	-3272.5	2002.289	-3665	2002.289	-3502.5	2002.289	-3120
2002.29	-3152.5	2002.29	-3570	2002.29	-3492.5	2002.29	-3072.5
2002.291	-3050	2002.291	-3490	2002.291	-3335	2002.291	-2910
2002.292	-2917.5	2002.292	-3405	2002.292	-3305	2002.292	-2870
2002.293	-2837.5	2002.293	-3320	2002.293	-3202.5	2002.293	-2785
2002.294	-2822.5	2002.294	-3350	2002.294	-3205	2002.294	-2830
2002.295	-2930	2002.295	-3297.5	2002.295	-3235	2002.295	-2807.5
2002.296	-3000	2002.296	-3387.5	2002.296	-3275	2002.296	-2947.5
2002.297	-3142.5	2002.297	-3492.5	2002.297	-3282.5	2002.297	-3012.5
2002.298	-3250	2002.298	-3565	2002.298	-3352.5	2002.298	-3080
2002.299	-3390	2002.299	-3640	2002.299	-3305	2002.299	-3047.5
2002.3	-3455	2002.3	-3747.5	2002.3	-3350	2002.3	-3135
2002.301	-3580	2002.301	-3800	2002.301	-3332.5	2002.301	-3135
2002.302	-3612.5	2002.302	-3835	2002.302	-3322.5	2002.302	-3147.5
2002.303	-3592.5	2002.303	-3860	2002.303	-3312.5	2002.303	-3170
2002.304	-3637.5	2002.304	-3917.5	2002.304	-3322.5	2002.304	-3132.5
2002.305	-3615	2002.305	-3832.5	2002.305	-3270	2002.305	-3137.5
2002.306	-3562.5	2002.306	-3802.5	2002.306	-3220	2002.306	-3075
2002.307	-3435	2002.307	-3682.5	2002.307	-3202.5	2002.307	-3025
2002.308	-3237.5	2002.308	-3567.5	2002.308	-3097.5	2002.308	-2955
2002.309	-3155	2002.309	-3447.5	2002.309	-3047.5	2002.309	-2865
2002.31	-3047.5	2002.31	-3320	2002.31	-3017.5	2002.31	-2805
2002.311	-2850	2002.311	-3237.5	2002.311	-2970	2002.311	-2722.5
2002.312	-2802.5	2002.312	-3110	2002.312	-2867.5	2002.312	-2625
2002.313	-2762.5	2002.313	-3135	2002.313	-2877.5	2002.313	-2682.5
2002.314	-2800	2002.314	-3115	2002.314	-2852.5	2002.314	-2657.5
2002.315	-2845	2002.315	-3097.5	2002.315	-2825	2002.315	-2670
2002.316	-3000	2002.316	-3262.5	2002.316	-2912.5	2002.316	-2740
2002.317	-3027.5	2002.317	-3247.5	2002.317	-2857.5	2002.317	-2822.5
2002.318	-3147.5	2002.318	-3370	2002.318	-2877.5	2002.318	-2882.5
2002.319	-3282.5	2002.319	-3390	2002.319	-2875	2002.319	-2967.5
2002.32	-3375	2002.32	-3450	2002.32	-2897.5	2002.32	-2992.5
2002.321	-3497.5	2002.321	-3507.5	2002.321	-2920	2002.321	-3060
2002.322	-3477.5	2002.322	-3530	2002.322	-2887.5	2002.322	-3020
2002.323	-3485	2002.323	-3540	2002.323	-2895	2002.323	-3072.5
2002.324	-3465	2002.324	-3552.5	2002.324	-2857.5	2002.324	-3052.5
2002.325	-3482.5	2002.325	-3525	2002.325	-2875	2002.325	-3010
2002.326	-3317.5	2002.326	-3480	2002.326	-2822.5	2002.326	-2960
2002.327	-3155	2002.327	-3372.5	2002.327	-2775	2002.327	-2885
2002.328	-3015	2002.328	-3202.5	2002.328	-2712.5	2002.328	-2837.5
2002.329	-2967.5	2002.329	-3162.5	2002.329	-2655	2002.329	-2832.5
2002.33	-2907.5	2002.33	-3065	2002.33	-2627.5	2002.33	-2742.5
2002.331	-2817.5	2002.331	-2932.5	2002.331	-2572.5	2002.331	-2635
2002.332	-2790	2002.332	-2942.5	2002.332	-2580	2002.332	-2625
2002.333	-2650	2002.333	-2747.5	2002.333	-2545	2002.333	-2627.5
2002.334	-2752.5	2002.334	-2800	2002.334	-2507.5	2002.334	-2567.5
2002.335	-2727.5	2002.335	-2795	2002.335	-2440	2002.335	-2572.5
2002.336	-2782.5	2002.336	-2850	2002.336	-2512.5	2002.336	-2610
2002.337	-2920	2002.337	-2880	2002.337	-2520	2002.337	-2630
2002.338	-3047.5	2002.338	-3030	2002.338	-2457.5	2002.338	-2680
2002.339	-3100	2002.339	-3075	2002.339	-2447.5	2002.339	-2707.5
2002.34	-3232.5	2002.34	-3147.5	2002.34	-2535	2002.34	-2762.5
2002.341	-3320	2002.341	-3255	2002.341	-2550	2002.341	-2855
2002.342	-3322.5	2002.342	-3250	2002.342	-2495	2002.342	-2880
2002.343	-3417.5	2002.343	-3312.5	2002.343	-2422.5	2002.343	-2897.5
2002.344	-3252.5	2002.344	-3360	2002.344	-2330	2002.344	-2917.5
2002.345	-3197.5	2002.345	-3325	2002.345	-2365	2002.345	-2890
2002.346	-3170	2002.346	-3207.5	2002.346	-2327.5	2002.346	-2857.5
2002.347	-3095	2002.347	-3100	2002.347	-2282.5	2002.347	-2830
2002.348	-2902.5	2002.348	-2985	2002.348	-2252.5	2002.348	-2727.5
2002.349	-2842.5	2002.349	-2850	2002.349	-2152.5	2002.349	-2662.5
2002.35	-2705	2002.35	-2817.5	2002.35	-2162.5	2002.35	-2597.5
2002.351	-2555	2002.351	-2742.5	2002.351	-2042.5	2002.351	-2562.5
2002.352	-2545	2002.352	-2617.5	2002.352	-2005	2002.352	-2500
2002.353	-2592.5	2002.353	-2617.5	2002.353	-2017.5	2002.353	-2447.5
2002.354	-2540	2002.354	-2575	2002.354	-1942.5	2002.354	-2502.5
2002.355	-2572.5	2002.355	-2552.5	2002.355	-1995	2002.355	-2427.5
2002.356	-2662.5	2002.356	-2605	2002.356	-1980	2002.356	-2492.5
2002.357	-2747.5	2002.357	-2642.5	2002.357	-1982.5	2002.357	-2460
2002.358	-2860	2002.358	-2775	2002.358	-1992.5	2002.358	-2495
2002.359	-2955	2002.359	-2820	2002.359	-2027.5	2002.359	-2660
2002.36	-3037.5	2002.36	-2920	2002.36	-2037.5	2002.36	-2652.5
2002.361	-3120	2002.361	-3010	2002.361	-2107.5	2002.361	-2712.5
2002.362	-3187.5	2002.362	-2997.5	2002.362	-2070	2002.362	-2702.5
2002.363	-3177.5	2002.363	-3027.5	2002.363	-2085	2002.363	-2720
2002.364	-3120	2002.364	-3007.5	2002.364	-2002.5	2002.364	-2672.5
2002.365	-3110	2002.365	-2980	2002.365	-1960	2002.365	-2622.5
2002.366	-2982.5	2002.366	-2907.5	2002.366	-1922.5	2002.366	-2587.5
2002.367	-2872.5	2002.367	-2782.5	2002.367	-1922.5	2002.367	-2472.5
2002.368	-2745	2002.368	-2690	2002.368	-1872.5	2002.368	-2465
2002.369	-2717.5	2002.369	-2622.5	2002.369	-1842.5	2002.369	-2480
2002.37	-2595	2002.37	-2472.5	2002.37	-1810	2002.37	-2407.5
2002.371	-2445	2002.371	-2380	2002.371	-1752.5	2002.371	-2317.5
2002.372	-2372.5	2002.372	-2297.5	2002.372	-1730	2002.372	-2222.5
2002.373	-2330	2002.373	-2320	2002.373	-1655	2002.373	-2162.5
2002.374	-2355	2002.374	-2295	2002.374	-1710	2002.374	-2190
2002.375	-2447.5	2002.375	-2337.5	2002.375	-1725	2002.375	-2247.5
2002.376	-2537.5	2002.376	-2370	2002.376	-1720	2002.376	-2270
2002.377	-2612.5	2002.377	-2415	2002.377	-1680	2002.377	-2250
2002.378	-2730	2002.378	-2430	2002.378	-1677.5	2002.378	-2257.5
2002.379	-2760	2002.379	-2485	2002.379	-1697.5	2002.379	-2360
2002.38	-2832.5	2002.38	-2565	2002.38	-1747.5	2002.38	-2330
2002.381	-2947.5	2002.381	-2592.5	2002.381	-1785	2002.381	-2427.5
2002.382	-2930	2002.382	-2660	2002.382	-1760	2002.382	-2460
2002.383	-2890	2002.383	-2677.5	2002.383	-1750	2002.383	-2480
2002.384	-2927.5	2002.384	-2607.5	2002.384	-1735	2002.384	-2447.5
2002.385	-2882.5	2002.385	-2632.5	2002.385	-1747.5	2002.385	-2460
2002.386	-2730	2002.386	-2542.5	2002.386	-1642.5	2002.386	-2365
2002.387	-2595	2002.387	-2425	2002.387	-1640	2002.387	-2267.5
2002.388	-2535	2002.388	-2290	2002.388	-1607.5	2002.388	-2240
2002.389	-2427.5	2002.389	-2185	2002.389	-1547.5	2002.389	-2135
2002.39	-2305	2002.39	-2092.5	2002.39	-1500	2002.39	-2160
2002.391	-2187.5	2002.391	-1972.5	2002.391	-1450	2002.391	-2112.5
2002.392	-2190	2002.392	-1917.5	2002.392	-1417.5	2002.392	-2017.5
2002.393	-2050	2002.393	-1840	2002.393	-1387.5	2002.393	-2022.5
2002.394	-2092.5	2002.394	-1865	2002.394	-1400	2002.394	-1942.5
2002.395	-2145	2002.395	-1877.5	2002.395	-1417.5	2002.395	-2000
2002.396	-2160	2002.396	-1930	2002.396	-1420	2002.396	-2042.5
2002.397	-2230	2002.397	-1947.5	2002.397	-1410	2002.397	-2065
2002.398	-2375	2002.398	-2087.5	2002.398	-1482.5	2002.398	-2092.5
2002.399	-2342.5	2002.399	-2172.5	2002.399	-1500	2002.399	-2075
2002.4	-2490	2002.4	-2205	2002.4	-1520	2002.4	-2127.5
2002.401	-2595	2002.401	-2297.5	2002.401	-1560	2002.401	-2237.5
2002.402	-2590	2002.402	-2300	2002.402	-1580	2002.402	-2265
2002.403	-2575	2002.403	-2305	2002.403	-1582.5	2002.403	-2297.5
2002.404	-2657.5	2002.404	-2275	2002.404	-1482.5	2002.404	-2252.5
2002.405	-2542.5	2002.405	-2247.5	2002.405	-1515	2002.405	-2197.5
2002.406	-2547.5	2002.406	-2212.5	2002.406	-1497.5	2002.406	-2137.5
2002.407	-2360	2002.407	-2105	2002.407	-1515	2002.407	-2122.5
2002.408	-2185	2002.408	-1990	2002.408	-1395	2002.408	-2050
2002.409	-2090	2002.409	-1910	2002.409	-1345	2002.409	-2050
2002.41	-1990	2002.41	-1885	2002.41	-1312.5	2002.41	-1955
2002.411	-1927.5	2002.411	-1745	2002.411	-1207.5	2002.411	-1857.5
2002.412	-1882.5	2002.412	-1640	2002.412	-1220	2002.412	-1862.5
2002.413	-1787.5	2002.413	-1552.5	2002.413	-1227.5	2002.413	-1777.5
2002.414	-1832.5	2002.414	-1587.5	2002.414	-1242.5	2002.414	-1775
2002.415	-1827.5	2002.415	-1635	2002.415	-1230	2002.415	-1860
2002.416	-1950	2002.416	-1660	2002.416	-1295	2002.416	-1905
2002.417	-1972.5	2002.417	-1675	2002.417	-1305	2002.417	-1927.5
2002.418	-2072.5	2002.418	-1800	2002.418	-1385	2002.418	-1982.5
2002.419	-2082.5	2002.419	-1900	2002.419	-1355	2002.419	-2030
2002.42	-2212.5	2002.42	-1927.5	2002.42	-1455	2002.42	-1987.5
2002.421	-2357.5	2002.421	-2012.5	2002.421	-1440	2002.421	-2045
2002.422	-2417.5	2002.422	-2040	2002.422	-1445	2002.422	-2092.5
2002.423	-2425	2002.423	-2022.5	2002.423	-1410	2002.423	-2122.5
2002.424	-2310	2002.424	-2027.5	2002.424	-1340	2002.424	-2025
2002.425	-2307.5	2002.425	-2035	2002.425	-1420	2002.425	-2097.5
2002.426	-2272.5	2002.426	-1995	2002.426	-1372.5	2002.426	-2047.5
2002.427	-2092.5	2002.427	-1847.5	2002.427	-1350	2002.427	-1955
2002.428	-1977.5	2002.428	-1755	2002.428	-1307.5	2002.428	-1897.5
2002.429	-1882.5	2002.429	-1582.5	2002.429	-1227.5	2002.429	-1767.5
2002.43	-1837.5	2002.43	-1547.5	2002.43	-1232.5	2002.43	-1760
2002.431	-1682.5	2002.431	-1450	2002.431	-1242.5	2002.431	-1702.5
2002.432	-1630	2002.432	-1352.5	2002.432	-1232.5	2002.432	-1632.5
2002.433	-1627.5	2002.433	-1312.5	2002.433	-1210	2002.433	-1577.5
2002.434	-1610	2002.434	-1240	2002.434	-1182.5	2002.434	-1620
2002.435	-1560	2002.435	-1275	2002.435	-1215	2002.435	-1617.5
2002.436	-1575	2002.436	-1325	2002.436	-1212.5	2002.436	-1587.5
2002.437	-1687.5	2002.437	-1447.5	2002.437	-1280	2002.437	-1695
2002.438	-1812.5	2002.438	-1470	2002.438	-1330	2002.438	-1707.5
2002.439	-1842.5	2002.439	-1522.5	2002.439	-1240	2002.439	-1705
2002.44	-1890	2002.44	-1557.5	2002.44	-1277.5	2002.44	-1720
2002.441	-2040	2002.441	-1617.5	2002.441	-1275	2002.441	-1830
2002.442	-2037.5	2002.442	-1665	2002.442	-1305	2002.442	-1817.5
2002.443	-2055	2002.443	-1667.5	2002.443	-1342.5	2002.443	-1845
2002.444	-2047.5	2002.444	-1625	2002.444	-1295	2002.444	-1677.5
2002.445	-1895	2002.445	-1510	2002.445	-1132.5	2002.445	-1615
2002.446	-1770	2002.446	-1437.5	2002.446	-1210	2002.446	-1582.5
2002.447	-1702.5	2002.447	-1377.5	2002.447	-1180	2002.447	-1695
2002.448	-1632.5	2002.448	-1330	2002.448	-1167.5	2002.448	-1612.5
2002.449	-1527.5	2002.449	-1300	2002.449	-1157.5	2002.449	-1620
2002.45	-1625	2002.45	-1355	2002.45	-1285	2002.45	-1657.5
2002.451	-1707.5	2002.451	-1465	2002.451	-1517.5	2002.451	-1875
2002.452	-1640	2002.452	-1380	2002.452	-1487.5	2002.452	-1837.5
2002.453	-1852.5	2002.453	-1565	2002.453	-1817.5	2002.453	-2005
2002.454	-2112.5	2002.454	-1852.5	2002.454	-2102.5	2002.454	-2347.5
2002.455	-2442.5	2002.455	-2142.5	2002.455	-2352.5	2002.455	-2572.5
2002.456	-2467.5	2002.456	-2075	2002.456	-2265	2002.456	-2497.5
2002.457	-2257.5	2002.457	-1832.5	2002.457	-1987.5	2002.457	-2167.5
2002.458	-1915	2002.458	-1402.5	2002.458	-1465	2002.458	-1800
2002.459	-1680	2002.459	-1105	2002.459	-1125	2002.459	-1540
2002.46	-1472.5	2002.46	-972.5	2002.46	-832.5	2002.46	-1292.5
2002.461	-1082.5	2002.461	-505	2002.461	-357.5	2002.461	-812.5
2002.462	-842.5	2002.462	-322.5	2002.462	-55	2002.462	-557.5
2002.463	-1115	2002.463	-710	2002.463	-487.5	2002.463	-890
2002.464	-1215	2002.464	-760	2002.464	-555	2002.464	-1007.5
2002.465	-1187.5	2002.465	-862.5	2002.465	-650	2002.465	-1085
2002.466	-1780	2002.466	-1425	2002.466	-1455	2002.466	-1740
2002.467	-2867.5	2002.467	-2605	2002.467	-2755	2002.467	-2937.5
2002.468	-2127.5	2002.468	-1832.5	2002.468	-1975	2002.468	-2202.5
2002.469	-1335	2002.469	-1017.5	2002.469	-1190	2002.469	-1375
2002.47	-1465	2002.47	-1125	2002.47	-1387.5	2002.47	-1475
2002.471	-1272.5	2002.471	-955	2002.471	-1207.5	2002.471	-1325
2002.472	-1152.5	2002.472	-832.5	2002.472	-1130	2002.472	-1200
2002.473	-1260	2002.473	-922.5	2002.473	-1262.5	2002.473	-1287.5
2002.474	-1525	2002.474	-1212.5	2002.474	-1607.5	2002.474	-1605
2002.475	-1645	2002.475	-1280	2002.475	-1712.5	2002.475	-1730
2002.476	-1830	2002.476	-1410	2002.476	-1800	2002.476	-1865
2002.477	-2455	2002.477	-2087.5	2002.477	-2462.5	2002.477	-2512.5
2002.478	-3157.5	2002.478	-2755	2002.478	-3110	2002.478	-3210
2002.479	-3610	2002.479	-3040	2002.479	-3397.5	2002.479	-3550
2002.48	-3965	2002.48	-3490	2002.48	-3842.5	2002.48	-3955
2002.481	-4160	2002.481	-3680	2002.481	-3920	2002.481	-4067.5
2002.482	-4247.5	2002.482	-3720	2002.482	-3892.5	2002.482	-4100
2002.483	-4237.5	2002.483	-3635	2002.483	-3857.5	2002.483	-4052.5
2002.484	-4155	2002.484	-3592.5	2002.484	-3742.5	2002.484	-4002.5
2002.485	-4065	2002.485	-3512.5	2002.485	-3697.5	2002.485	-3850
2002.486	-3867.5	2002.486	-3340	2002.486	-3577.5	2002.486	-3712.5
2002.487	-3672.5	2002.487	-3157.5	2002.487	-3382.5	2002.487	-3605
2002.488	-3465	2002.488	-3007.5	2002.488	-3300	2002.488	-3485
2002.489	-3292.5	2002.489	-2795	2002.489	-3207.5	2002.489	-3345
2002.49	-3085	2002.49	-2717.5	2002.49	-3117.5	2002.49	-3170
2002.491	-2960	2002.491	-2490	2002.491	-2982.5	2002.491	-3002.5
2002.492	-2865	2002.492	-2367.5	2002.492	-2907.5	2002.492	-2930
2002.493	-2655	2002.493	-2267.5	2002.493	-2822.5	2002.493	-2822.5
2002.494	-2635	2002.494	-2245	2002.494	-2757.5	2002.494	-2812.5
2002.495	-2630	2002.495	-2222.5	2002.495	-2685	2002.495	-2822.5
2002.496	-2675	2002.496	-2162.5	2002.496	-2682.5	2002.496	-2782.5
2002.497	-2725	2002.497	-2120	2002.497	-2600	2002.497	-2720
2002.498	-2672.5	2002.498	-2127.5	2002.498	-2582.5	2002.498	-2737.5
2002.499	-2640	2002.499	-2090	2002.499	-2462.5	2002.499	-2612.5
2002.5	-2722.5	2002.5	-2237.5	2002.5	-2507.5	2002.5	-2700
2002.501	-2830	2002.501	-2317.5	2002.501	-2522.5	2002.501	-2767.5
2002.502	-2872.5	2002.502	-2305	2002.502	-2537.5	2002.502	-2780
2002.503	-2877.5	2002.503	-2267.5	2002.503	-2472.5	2002.503	-2697.5
2002.504	-2845	2002.504	-2302.5	2002.504	-2465	2002.504	-2660
2002.505	-2780	2002.505	-2290	2002.505	-2465	2002.505	-2640
2002.506	-2637.5	2002.506	-2137.5	2002.506	-2367.5	2002.506	-2582.5
2002.507	-2490	2002.507	-2042.5	2002.507	-2287.5	2002.507	-2462.5
2002.508	-2345	2002.508	-1905	2002.508	-2192.5	2002.508	-2360
2002.509	-2260	2002.509	-1762.5	2002.509	-2160	2002.509	-2335
2002.51	-2167.5	2002.51	-1690	2002.51	-2105	2002.51	-2247.5
2002.511	-2065	2002.511	-1645	2002.511	-2080	2002.511	-2207.5
2002.512	-2072.5	2002.512	-1552.5	2002.512	-2107.5	2002.512	-2165
2002.513	-2175	2002.513	-1690	2002.513	-2270	2002.513	-2377.5
2002.514	-2805	2002.514	-2382.5	2002.514	-3000	2002.514	-2947.5
2002.515	-3220	2002.515	-2862.5	2002.515	-3640	2002.515	-3310
2002.516	-2487.5	2002.516	-2372.5	2002.516	-3427.5	2002.516	-2880
2002.517	-850	2002.517	-1615	2002.517	-3497.5	2002.517	-2272.5
2002.518	2540	2002.518	797.5	2002.518	-1677.5	2002.518	-42.5
2002.519	9312.5	2002.519	7135	2002.519	4777.5	2002.519	5957.5
2002.52	18907.5	2002.52	17515	2002.52	16615	2002.52	15875
2002.521	26112.5	2002.521	26842.5	2002.521	28487.5	2002.521	24157.5
2002.522	30300	2002.522	33750	2002.522	38410	2002.522	30127.5
2002.523	36055	2002.523	43605	2002.523	51410	2002.523	38890
2002.524	43405	2002.524	52677.5	2002.524	57980	2002.524	46800
2002.525	47970	2002.525	57502.5	2002.525	59065	2002.525	52207.5
2002.526	22130	2002.526	45122.5	2002.526	64155	2002.526	45712.5
2002.527	-11362.5	2002.527	-16697.5	2002.527	-25232.5	2002.527	-15210
2002.528	-6932.5	2002.528	-7392.5	2002.528	-11202.5	2002.528	-10327.5
2002.529	-2075	2002.529	-1442.5	2002.529	-3137.5	2002.529	-4255
2002.53	2292.5	2002.53	3102.5	2002.53	1600	2002.53	252.5
2002.531	6705	2002.531	7390	2002.531	6097.5	2002.531	4582.5
2002.532	9787.5	2002.532	10385	2002.532	9035	2002.532	7477.5
2002.533	11422.5	2002.533	11817.5	2002.533	10287.5	2002.533	8787.5
2002.534	13710	2002.534	13827.5	2002.534	12210	2002.534	10745
2002.535	16130	2002.535	16175	2002.535	14435	2002.535	12902.5
2002.536	18310	2002.536	18252.5	2002.536	16512.5	2002.536	14982.5
2002.537	20435	2002.537	20335	2002.537	18632.5	2002.537	16987.5
2002.538	22000	2002.538	21815	2002.538	20232.5	2002.538	18452.5
2002.539	23125	2002.539	22997.5	2002.539	21510	2002.539	19787.5
2002.54	23770	2002.54	23620	2002.54	22352.5	2002.54	20700
2002.541	23977.5	2002.541	23897.5	2002.541	22827.5	2002.541	21255
2002.542	23915	2002.542	23885	2002.542	22880	2002.542	21570
2002.543	23690	2002.543	23540	2002.543	22695	2002.543	21512.5
2002.544	23360	2002.544	23065	2002.544	22277.5	2002.544	21355
2002.545	22850	2002.545	22525	2002.545	21662.5	2002.545	20867.5
2002.546	22322.5	2002.546	21857.5	2002.546	21010	2002.546	20370
2002.547	21707.5	2002.547	21152.5	2002.547	20362.5	2002.547	19837.5
2002.548	21125	2002.548	20520	2002.548	19590	2002.548	19290
2002.549	20460	2002.549	19782.5	2002.549	18797.5	2002.549	18747.5
2002.55	19657.5	2002.55	19007.5	2002.55	18010	2002.55	18027.5
2002.551	19140	2002.551	18287.5	2002.551	17215	2002.551	17397.5
2002.552	18370	2002.552	17592.5	2002.552	16452.5	2002.552	16775
2002.553	17650	2002.553	16882.5	2002.553	15650	2002.553	16167.5
2002.554	16872.5	2002.554	16180	2002.554	14920	2002.554	15517.5
2002.555	16160	2002.555	15382.5	2002.555	14162.5	2002.555	14817.5
2002.556	15412.5	2002.556	14665	2002.556	13385	2002.556	14202.5
2002.557	14625	2002.557	13890	2002.557	12737.5	2002.557	13585
2002.558	13815	2002.558	13107.5	2002.558	12050	2002.558	12905
2002.559	13172.5	2002.559	12427.5	2002.559	11470	2002.559	12372.5
2002.56	12362.5	2002.56	11780	2002.56	10842.5	2002.56	11752.5
2002.561	11707.5	2002.561	11177.5	2002.561	10230	2002.561	11215
2002.562	11192.5	2002.562	10565	2002.562	9700	2002.562	10630
2002.563	10572.5	2002.563	9965	2002.563	9200	2002.563	10142.5
2002.564	10092.5	2002.564	9442.5	2002.564	8720	2002.564	9687.5
2002.565	9647.5	2002.565	9025	2002.565	8265	2002.565	9255
2002.566	9195	2002.566	8632.5	2002.566	7730	2002.566	8820
2002.567	8860	2002.567	8262.5	2002.567	7370	2002.567	8505
2002.568	8602.5	2002.568	7982.5	2002.568	7035	2002.568	8265
2002.569	8302.5	2002.569	7667.5	2002.569	6665	2002.569	7955
2002.57	8047.5	2002.57	7402.5	2002.57	6375	2002.57	7707.5
2002.571	7802.5	2002.571	7167.5	2002.571	6090	2002.571	7440
2002.572	7485	2002.572	6950	2002.572	5817.5	2002.572	7237.5
2002.573	7227.5	2002.573	6642.5	2002.573	5447.5	2002.573	6972.5
2002.574	6930	2002.574	6327.5	2002.574	5150	2002.574	6627.5
2002.575	6510	2002.575	6022.5	2002.575	4860	2002.575	6322.5
2002.576	6160	2002.576	5685	2002.576	4605	2002.576	6112.5
2002.577	5815	2002.577	5372.5	2002.577	4385	2002.577	5847.5
2002.578	5440	2002.578	5045	2002.578	4125	2002.578	5525
2002.579	5095	2002.579	4747.5	2002.579	3852.5	2002.579	5267.5
2002.58	4772.5	2002.58	4402.5	2002.58	3605	2002.58	4975
2002.581	4385	2002.581	4172.5	2002.581	3355	2002.581	4727.5
2002.582	4127.5	2002.582	3812.5	2002.582	3080	2002.582	4425
2002.583	3905	2002.583	3605	2002.583	2892.5	2002.583	4260
2002.584	3692.5	2002.584	3342.5	2002.584	2637.5	2002.584	4050
2002.585	3512.5	2002.585	3142.5	2002.585	2472.5	2002.585	3800
2002.586	3367.5	2002.586	3002.5	2002.586	2277.5	2002.586	3660
2002.587	3227.5	2002.587	2902.5	2002.587	2127.5	2002.587	3550
2002.588	3170	2002.588	2740	2002.588	1957.5	2002.588	3445
2002.589	3017.5	2002.589	2572.5	2002.589	1702.5	2002.589	3227.5
2002.59	2895	2002.59	2467.5	2002.59	1582.5	2002.59	3062.5
2002.591	2795	2002.591	2325	2002.591	1437.5	2002.591	2930
2002.592	2557.5	2002.592	2147.5	2002.592	1205	2002.592	2687.5
2002.593	2385	2002.593	1917.5	2002.593	967.5	2002.593	2505
2002.594	2170	2002.594	1705	2002.594	752.5	2002.594	2272.5
2002.595	1942.5	2002.595	1432.5	2002.595	535	2002.595	2045
2002.596	1615	2002.596	1205	2002.596	285	2002.596	1742.5
2002.597	1340	2002.597	900	2002.597	65	2002.597	1520
2002.598	915	2002.598	595	2002.598	-172.5	2002.598	1257.5
2002.599	665	2002.599	335	2002.599	-345	2002.599	1012.5
2002.6	405	2002.6	25	2002.6	-637.5	2002.6	790
2002.601	70	2002.601	-335	2002.601	-810	2002.601	452.5
2002.602	-197.5	2002.602	-620	2002.602	-997.5	2002.602	185
2002.603	-492.5	2002.603	-867.5	2002.603	-1230	2002.603	-55
2002.604	-662.5	2002.604	-1042.5	2002.604	-1372.5	2002.604	-207.5
2002.605	-785	2002.605	-1230	2002.605	-1527.5	2002.605	-395
2002.606	-907.5	2002.606	-1282.5	2002.606	-1645	2002.606	-510
2002.607	-902.5	2002.607	-1420	2002.607	-1797.5	2002.607	-645
2002.608	-992.5	2002.608	-1415	2002.608	-1915	2002.608	-807.5
2002.609	-1060	2002.609	-1482.5	2002.609	-2090	2002.609	-922.5
2002.61	-1142.5	2002.61	-1647.5	2002.61	-2212.5	2002.61	-1055
2002.611	-1277.5	2002.611	-1792.5	2002.611	-2372.5	2002.611	-1170
2002.612	-1387.5	2002.612	-1905	2002.612	-2512.5	2002.612	-1277.5
2002.613	-1582.5	2002.613	-2025	2002.613	-2630	2002.613	-1407.5
2002.614	-1780	2002.614	-2190	2002.614	-2800	2002.614	-1610
2002.615	-1965	2002.615	-2362.5	2002.615	-2922.5	2002.615	-1752.5
2002.616	-2082.5	2002.616	-2502.5	2002.616	-3110	2002.616	-1947.5
2002.617	-2427.5	2002.617	-2765	2002.617	-3220	2002.617	-2122.5
2002.618	-2730	2002.618	-3012.5	2002.618	-3392.5	2002.618	-2397.5
2002.619	-2830	2002.619	-3187.5	2002.619	-3557.5	2002.619	-2547.5
2002.62	-3100	2002.62	-3465	2002.62	-3682.5	2002.62	-2727.5
2002.621	-3360	2002.621	-3637.5	2002.621	-3832.5	2002.621	-3000
2002.622	-3437.5	2002.622	-3775	2002.622	-3925	2002.622	-3070
2002.623	-3617.5	2002.623	-3872.5	2002.623	-4005	2002.623	-3212.5
2002.624	-3675	2002.624	-4000	2002.624	-4125	2002.624	-3280
2002.625	-3712.5	2002.625	-4065	2002.625	-4197.5	2002.625	-3400
2002.626	-3697.5	2002.626	-4052.5	2002.626	-4217.5	2002.626	-3425
2002.627	-3642.5	2002.627	-3932.5	2002.627	-4215	2002.627	-3422.5
2002.628	-3602.5	2002.628	-3965	2002.628	-4332.5	2002.628	-3475
2002.629	-3612.5	2002.629	-4025	2002.629	-4347.5	2002.629	-3482.5
2002.63	-3547.5	2002.63	-3935	2002.63	-4362.5	2002.63	-3607.5
2002.631	-3560	2002.631	-3882.5	2002.631	-4392.5	2002.631	-3535
2002.632	-3622.5	2002.632	-3870	2002.632	-4410	2002.632	-3527.5
2002.633	-3527.5	2002.633	-3850	2002.633	-4377.5	2002.633	-3535
2002.634	-3642.5	2002.634	-3885	2002.634	-4412.5	2002.634	-3605
2002.635	-3702.5	2002.635	-4000	2002.635	-4522.5	2002.635	-3690
2002.636	-3877.5	2002.636	-4130	2002.636	-4590	2002.636	-3750
2002.637	-3925	2002.637	-4215	2002.637	-4650	2002.637	-3882.5
2002.638	-4102.5	2002.638	-4347.5	2002.638	-4765	2002.638	-3962.5
2002.639	-4257.5	2002.639	-4457.5	2002.639	-4862.5	2002.639	-4050
2002.64	-4435	2002.64	-4597.5	2002.64	-4917.5	2002.64	-4117.5
2002.641	-4450	2002.641	-4655	2002.641	-4957.5	2002.641	-4225
2002.642	-4570	2002.642	-4722.5	2002.642	-5000	2002.642	-4267.5
2002.643	-4617.5	2002.643	-4767.5	2002.643	-5007.5	2002.643	-4295
2002.644	-4615	2002.644	-4877.5	2002.644	-5072.5	2002.644	-4347.5
2002.645	-4590	2002.645	-4832.5	2002.645	-5082.5	2002.645	-4292.5
2002.646	-4470	2002.646	-4702.5	2002.646	-5052.5	2002.646	-4192.5
2002.647	-4435	2002.647	-4675	2002.647	-5030	2002.647	-4242.5
2002.648	-4230	2002.648	-4525	2002.648	-4932.5	2002.648	-4122.5
2002.649	-4232.5	2002.649	-4515	2002.649	-4995	2002.649	-4147.5
2002.65	-4142.5	2002.65	-4432.5	2002.65	-4937.5	2002.65	-4037.5
2002.651	-3945	2002.651	-4327.5	2002.651	-4925	2002.651	-4005
2002.652	-3930	2002.652	-4225	2002.652	-4942.5	2002.652	-3902.5
